time	group	step	mark	flag	DigAux	A1 HbO	A1 Hb	A2 HbO	A2 Hb	A3 HbO	A3 Hb	A4 HbO	A4 Hb	B1 HbO	B1 Hb	B2 HbO	B2 Hb	B3 HbO	B3 Hb	B4 HbO	B4 Hb	

1582.695	1	1	0	131584	255	-0.0027905	0.0036049	-0.0018238	0.00070505	-0.00046656	0.00060273	-0.0018495	0.00071496	-0.0065634	0.0025373	0.0023344	-0.0030157	-0.0046796	0.001809	0.003138	-0.0040539	
1582.894	1	1	0	131072	255	-0.0027614	0.0035673	-0.0017906	0.00069221	-0.00053484	0.00069094	-0.0017409	0.00067298	-0.0066154	0.0025574	0.0022095	-0.0028544	-0.0046707	0.0018056	0.0028498	-0.0036815	
1583.019	1	1	0	131072	255	-0.0027831	0.0035954	-0.0018303	0.00070755	-0.0005122	0.00066168	-0.0018414	0.00071186	-0.0062515	0.0024167	0.0022619	-0.002922	-0.0046328	0.0017909	0.0029908	-0.0038637	
1583.169	1	1	0	131072	255	-0.0027924	0.0036073	-0.0018516	0.00071577	-0.00052194	0.00067427	-0.0018336	0.00070883	-0.0060553	0.0023408	0.0022165	-0.0028634	-0.0046302	0.0017899	0.0029186	-0.0037704	
1583.296	1	1	0	131072	255	-0.00281	0.0036301	-0.0018003	0.00069595	-0.000529	0.00068339	-0.0018011	0.00069625	-0.00624	0.0024122	0.0022661	-0.0029274	-0.0046326	0.0017909	0.0030195	-0.0039008	
1583.443	1	1	0	131072	255	-0.0028598	0.0036944	-0.0018661	0.0007214	-0.00051527	0.00066566	-0.0018581	0.00071831	-0.0064087	0.0024775	0.0023293	-0.0030091	-0.0046425	0.0017947	0.0031195	-0.00403	
1583.644	1	1	0	131072	255	-0.0028249	0.0036493	-0.0018918	0.00073134	-0.00050855	0.00065697	-0.0018513	0.00071567	-0.0062326	0.0024094	0.0023063	-0.0029795	-0.0045846	0.0017723	0.003058	-0.0039505	
1583.769	1	1	0	131072	255	-0.0028269	0.0036519	-0.0018225	0.00070453	-0.00055411	0.00071583	-0.0017425	0.00067362	-0.0061117	0.0023627	0.0022205	-0.0028685	-0.0045448	0.0017569	0.0029307	-0.003786	
1583.919	1	1	0	131072	255	-0.0028347	0.003662	-0.001775	0.00068617	-0.00056618	0.00073143	-0.0016949	0.00065522	-0.006034	0.0023326	0.0022229	-0.0028716	-0.0045068	0.0017422	0.0029293	-0.0037842	
1584.044	1	1	0	131072	255	-0.0028462	0.0036768	-0.0018051	0.00069779	-0.00052105	0.00067312	-0.001747	0.00067535	-0.0060959	0.0023565	0.0022221	-0.0028707	-0.0044837	0.0017333	0.0029882	-0.0038603	
1584.194	1	1	0	131072	255	-0.0028731	0.0037116	-0.0018209	0.00070393	-0.00048726	0.00062947	-0.001839	0.0007109	-0.0062933	0.0024328	0.0022528	-0.0029103	-0.0045198	0.0017473	0.0030959	-0.0039995	
1584.395	1	1	0	131072	255	-0.0028112	0.0036316	-0.0018907	0.00073088	-0.00046247	0.00059745	-0.001822	0.00070436	-0.0063447	0.0024527	0.0023321	-0.0030128	-0.004618	0.0017852	0.0032136	-0.0041515	
1584.520	1	1	0	131072	255	-0.0027452	0.0035464	-0.0018854	0.00072886	-0.00051275	0.0006624	-0.0017464	0.00067511	-0.0062867	0.0024303	0.0022552	-0.0029133	-0.0044733	0.0017293	0.0030477	-0.0039372	
1584.670	1	1	0	131072	255	-0.0027752	0.0035851	-0.0017673	0.00068321	-0.0005475	0.0007073	-0.0017385	0.00067206	-0.0056821	0.0021966	0.0021677	-0.0028003	-0.0043788	0.0016927	0.0028911	-0.0037349	
1584.819	1	1	0	131072	255	-0.0028162	0.0036381	-0.0017969	0.00069464	-0.00057743	0.00074595	-0.0016895	0.0006531	-0.0056472	0.0021831	0.0021562	-0.0027855	-0.0043418	0.0016784	0.0028802	-0.0037208	
1584.945	1	1	0	131072	255	-0.0028233	0.0036473	-0.0018338	0.0007089	-0.0005512	0.00071206	-0.0016659	0.00064399	-0.0061926	0.0023939	0.0021663	-0.0027986	-0.0043705	0.0016895	0.0029132	-0.0037634	
1585.144	1	1	0	131072	255	-0.0028218	0.0036454	-0.0018096	0.00069955	-0.00051185	0.00066124	-0.001738	0.00067187	-0.0060466	0.0023375	0.0022021	-0.0028448	-0.0044166	0.0017073	0.0029962	-0.0038706	
1585.269	1	1	0	131072	255	-0.002821	0.0036444	-0.0017805	0.00068831	-0.00052741	0.00068134	-0.0016867	0.00065203	-0.0057794	0.0022342	0.0021583	-0.0027882	-0.0043414	0.0016783	0.0029257	-0.0037796	
1585.419	1	1	0	131072	255	-0.0028376	0.0036658	-0.0017582	0.00067969	-0.00055322	0.00071468	-0.0016065	0.00062103	-0.005736	0.0022174	0.0020849	-0.0026934	-0.0042572	0.0016457	0.0028285	-0.003654	
1585.570	1	1	0	131072	255	-0.0028427	0.0036723	-0.0017489	0.00067609	-0.00057538	0.00074331	-0.0016246	0.00062805	-0.0059435	0.0022976	0.0020613	-0.0026628	-0.0042447	0.0016409	0.0028018	-0.0036195	
1585.694	1	1	0	131072	255	-0.0028459	0.0036765	-0.0017275	0.0006678	-0.00057797	0.00074666	-0.0016062	0.00062093	-0.0061357	0.0023719	0.002078	-0.0026845	-0.0042509	0.0016433	0.0028147	-0.0036361	
1585.894	1	1	0	131072	255	-0.0028748	0.0037138	-0.0017409	0.00067298	-0.00053984	0.00069739	-0.0016505	0.00063803	-0.0063014	0.002436	0.0021276	-0.0027486	-0.004265	0.0016487	0.0029013	-0.003748	
1586.046	1	1	0	131072	255	-0.0028336	0.0036606	-0.0017258	0.00066715	-0.00055114	0.00071199	-0.0015758	0.00060915	-0.0062153	0.0024027	0.0021236	-0.0027434	-0.0042179	0.0016306	0.0028835	-0.0037251	
1586.170	1	1	0	131072	255	-0.0028071	0.0036264	-0.0016825	0.0006504	-0.00056289	0.00072717	-0.0015547	0.000601	-0.0059678	0.002307	0.0020235	-0.0026141	-0.0041736	0.0016134	0.0027318	-0.0035291	
1586.321	1	1	0	131072	255	-0.0028509	0.003683	-0.0016683	0.00064493	-0.00056956	0.00073579	-0.0016054	0.00062059	-0.0062441	0.0024138	0.0019884	-0.0025687	-0.0041595	0.001608	0.0026697	-0.0034488	
1586.445	1	1	0	131072	255	-0.0028827	0.003724	-0.0016781	0.00064873	-0.00056453	0.00072929	-0.0015887	0.00061417	-0.0062342	0.00241	0.001983	-0.0025617	-0.0042128	0.0016286	0.0027116	-0.003503	
1586.645	1	1	0	131072	255	-0.0028985	0.0037444	-0.0016979	0.00065637	-0.00055441	0.00071621	-0.0016072	0.00062131	-0.0063809	0.0024667	0.002003	-0.0025875	-0.0043153	0.0016682	0.0027607	-0.0035664	
1586.795	1	1	0	131072	255	-0.0028322	0.0036588	-0.0017459	0.00067491	-0.00054546	0.00070466	-0.0015621	0.00060386	-0.0067109	0.0025943	0.002044	-0.0026406	-0.0042714	0.0016512	0.0028377	-0.0036659	
1586.920	1	1	0	131072	255	-0.002887	0.0037295	-0.0016668	0.00064434	-0.00058511	0.00075588	-0.0014838	0.00057361	-0.0060266	0.0023297	0.0019282	-0.002491	-0.0041526	0.0016053	0.0026293	-0.0033966	
1587.070	1	1	0	131072	255	-0.002877	0.0037166	-0.0016536	0.00063923	-0.00062567	0.00080827	-0.0014652	0.00056642	-0.0060508	0.0023391	0.0018655	-0.0024099	-0.0041103	0.0015889	0.0024961	-0.0032246	
1587.195	1	1	0	131072	255	-0.0028559	0.0036894	-0.0016254	0.00062835	-0.00062166	0.00080309	-0.0014229	0.00055007	-0.0062037	0.0023982	0.0018465	-0.0023854	-0.0040659	0.0015718	0.0024695	-0.0031902	
1587.395	1	1	0	131072	255	-0.0029017	0.0037485	-0.0016023	0.0006194	-0.00063178	0.00081617	-0.0013983	0.00054056	-0.0060046	0.0023212	0.0018384	-0.0023749	-0.0040823	0.0015781	0.0025369	-0.0032774	
1587.546	1	1	0	131072	255	-0.002877	0.0037167	-0.001686	0.00065176	-0.0006261	0.00080883	-0.0015142	0.00058534	-0.0061132	0.0023632	0.0018909	-0.0024427	-0.0041048	0.0015868	0.0026323	-0.0034006	
1587.671	1	1	0	131072	255	-0.0027815	0.0035933	-0.0017585	0.00067978	-0.00059477	0.00076836	-0.0015622	0.0006039	-0.0060982	0.0023574	0.001971	-0.0025462	-0.0041495	0.0016041	0.0027438	-0.0035446	
1587.821	1	1	0	131072	255	-0.0028525	0.003685	-0.0017216	0.00066553	-0.00063138	0.00081564	-0.0014812	0.00057259	-0.0060321	0.0023319	0.0018984	-0.0024524	-0.0040182	0.0015533	0.0025487	-0.0032926	
1587.946	1	1	0	131072	255	-0.0028775	0.0037173	-0.0016748	0.00064745	-0.00066242	0.00085575	-0.0013645	0.00052749	-0.0062087	0.0024001	0.0017706	-0.0022873	-0.0039784	0.001538	0.0024081	-0.0031109	
1588.146	1	1	0	131072	255	-0.0029119	0.0037618	-0.0016315	0.00063071	-0.00068282	0.0008821	-0.0013491	0.00052151	-0.0063095	0.0024391	0.0017218	-0.0022243	-0.0039291	0.0015189	0.0023741	-0.003067	
1588.296	1	1	0	131072	255	-0.0029147	0.0037654	-0.001602	0.00061931	-0.00068121	0.00088002	-0.0013991	0.00054088	-0.0061407	0.0023738	0.0017176	-0.0022189	-0.003976	0.001537	0.0023947	-0.0030936	
1588.420	1	1	0	131072	255	-0.0028839	0.0037255	-0.001624	0.0006278	-0.00063224	0.00081676	-0.0014578	0.00056355	-0.0062624	0.0024209	0.0017519	-0.0022632	-0.0040462	0.0015642	0.0024888	-0.0032152	
1588.571	1	1	0	131072	255	-0.0028579	0.003692	-0.0017031	0.00065838	-0.00059511	0.0007688	-0.0015396	0.00059517	-0.006386	0.0024687	0.0018167	-0.0023469	-0.0040907	0.0015814	0.0026132	-0.0033758	
1588.695	1	1	0	131072	255	-0.0028295	0.0036553	-0.0017627	0.00068141	-0.00058867	0.00076047	-0.0015613	0.00060355	-0.0064203	0.0024819	0.0018886	-0.0024398	-0.0041069	0.0015876	0.0026929	-0.0034788	
1588.895	1	1	0	131072	255	-0.0028189	0.0036416	-0.0016978	0.00065631	-0.00058515	0.00075592	-0.0014977	0.00057899	-0.006374	0.002464	0.0018765	-0.0024241	-0.0040547	0.0015675	0.0025744	-0.0033258	
1589.045	1	1	0	131072	255	-0.0028454	0.0036759	-0.0016729	0.0006467	-0.00061264	0.00079144	-0.001478	0.00057137	-0.006374	0.002464	0.00175	-0.0022608	-0.0040184	0.0015534	0.0023709	-0.0030628	
1589.171	1	1	0	131072	255	-0.0027823	0.0035943	-0.0017271	0.00066768	-0.00060209	0.00077781	-0.001466	0.00056671	-0.0066007	0.0025517	0.001708	-0.0022065	-0.0040369	0.0015606	0.002313	-0.0029881	
1589.322	1	1	0	131072	255	-0.0027467	0.0035483	-0.0017392	0.00067232	-0.00059889	0.00077368	-0.00143	0.00055279	-0.0065016	0.0025134	0.0017176	-0.0022189	-0.0040361	0.0015603	0.0023236	-0.0030017	
1589.446	1	1	0	131072	255	-0.0028129	0.0036338	-0.0017547	0.00067832	-0.00062681	0.00080975	-0.001401	0.0005416	-0.0065711	0.0025402	0.0017695	-0.0022859	-0.004034	0.0015595	0.0023853	-0.0030814	
1589.672	1	1	0	131072	255	-0.0028468	0.0036776	-0.0017404	0.0006728	-0.00064515	0.00083343	-0.0014794	0.00057188	-0.0063005	0.0024356	0.0018143	-0.0023438	-0.0040356	0.0015601	0.0024737	-0.0031957	
1589.796	1	1	0	131072	255	-0.002838	0.0036663	-0.0017582	0.00067968	-0.00060793	0.00078536	-0.0015466	0.00059787	-0.00615	0.0023774	0.0018882	-0.0024392	-0.0041114	0.0015894	0.0025763	-0.0033282	
1589.921	1	1	0	131072	255	-0.0028943	0.003739	-0.0017797	0.00068801	-0.00061186	0.00079044	-0.0014721	0.00056907	-0.0060835	0.0023517	0.0019055	-0.0024616	-0.0041188	0.0015922	0.0025773	-0.0033295	
1590.071	1	1	0	131072	255	-0.00288	0.0037206	-0.0017649	0.00068226	-0.00065759	0.00084951	-0.0014107	0.00054533	-0.0062041	0.0023983	0.0017928	-0.002316	-0.0039572	0.0015298	0.0023798	-0.0030744	
1590.196	2	1	0	131072	255	-0.0028876	0.0037304	-0.001742	0.00067343	-0.00067606	0.00087337	-0.0013935	0.0005387	-0.0062983	0.0024348	0.0017463	-0.002256	-0.0039674	0.0015337	0.0022796	-0.0029449	
1590.397	2	1	0	131072	255	-0.0029366	0.0037936	-0.0017352	0.00067077	-0.00070314	0.00090836	-0.0013906	0.00053756	-0.0061136	0.0023634	0.001744	-0.002253	-0.0039507	0.0015273	0.0023171	-0.0029933	
1590.547	2	1	0	131072	255	-0.0029453	0.0038049	-0.0017169	0.0006637	-0.00070487	0.00091059	-0.0014695	0.00056807	-0.0061515	0.002378	0.0017888	-0.0023109	-0.0039383	0.0015224	0.0023883	-0.0030853	
1590.672	2	1	0	131072	255	-0.0029491	0.0038098	-0.0017715	0.0006848	-0.00066578	0.00086008	-0.0015191	0.00058723	-0.006206	0.0023991	0.0018277	-0.0023611	-0.0039936	0.0015438	0.0024579	-0.0031752	
1590.822	2	1	0	131072	255	-0.0029587	0.0038222	-0.0018194	0.00070333	-0.00061906	0.00079974	-0.0015245	0.00058935	-0.0063049	0.0024373	0.0018906	-0.0024424	-0.0040944	0.0015828	0.0025731	-0.0033241	
1590.945	2	1	0	131072	255	-0.0029511	0.0038124	-0.0018918	0.00073133	-0.00061697	0.00079703	-0.0015156	0.0005859	-0.0066072	0.0025542	0.0019407	-0.0025071	-0.0041053	0.001587	0.0026596	-0.0034358	
1591.172	2	1	0	131072	255	-0.0028763	0.0037158	-0.0017913	0.00069247	-0.0006335	0.00081839	-0.0014719	0.00056899	-0.0064908	0.0025092	0.0018535	-0.0023945	-0.0039888	0.001542	0.0024348	-0.0031454	
1591.297	2	1	0	131072	255	-0.0029337	0.0037899	-0.0017382	0.00067196	-0.00067016	0.00086575	-0.0014802	0.00057221	-0.0065429	0.0025293	0.0017882	-0.0023101	-0.0039754	0.0015368	0.0022987	-0.0029696	
1591.421	2	1	0	131072	255	-0.0029318	0.0037875	-0.0017437	0.00067409	-0.00068268	0.00088192	-0.0014829	0.00057325	-0.0066447	0.0025687	0.0017828	-0.0023032	-0.0040002	0.0015464	0.0022807	-0.0029463	
1591.572	2	1	0	131072	255	-0.0029684	0.0038348	-0.0017878	0.00069112	-0.00070793	0.00091454	-0.0014778	0.00057129	-0.006583	0.0025448	0.001816	-0.002346	-0.0040307	0.0015582	0.0023829	-0.0030783	
1591.696	2	1	0	131072	255	-0.0029547	0.0038171	-0.0018144	0.0007014	-0.00068803	0.00088883	-0.0014847	0.00057397	-0.006384	0.0024679	0.0018617	-0.002405	-0.004089	0.0015807	0.0024968	-0.0032255	
1591.922	2	1	0	131072	255	-0.0029363	0.0037932	-0.001816	0.00070204	-0.00063415	0.00081923	-0.0015751	0.00060889	-0.0067765	0.0026196	0.0019252	-0.0024871	-0.0041783	0.0016152	0.0026035	-0.0033633	
1592.046	2	1	0	131072	255	-0.0029051	0.0037529	-0.0018596	0.00071886	-0.00059428	0.00076772	-0.0015493	0.00059894	-0.0067475	0.0026084	0.0020015	-0.0025857	-0.0041978	0.0016228	0.0026946	-0.003481	
1592.172	2	1	0	131072	255	-0.0028706	0.0037084	-0.0018882	0.00072994	-0.00064911	0.00083856	-0.0015389	0.0005949	-0.0065132	0.0025179	0.0019347	-0.0024994	-0.0040559	0.0015679	0.0025267	-0.0032641	
1592.323	2	1	0	131072	255	-0.0028388	0.0036673	-0.0018534	0.00071646	-0.00065147	0.0008416	-0.0015563	0.00060162	-0.006428	0.0024849	0.0018863	-0.0024369	-0.0040216	0.0015546	0.00243	-0.0031392	
1592.522	2	1	0	131072	255	-0.0028539	0.0036868	-0.0018127	0.00070076	-0.00064357	0.0008314	-0.0014953	0.00057803	-0.0067666	0.0026158	0.0018763	-0.0024239	-0.0040952	0.0015831	0.0024127	-0.0031169	
1592.673	2	1	0	131072	255	-0.0028927	0.0037369	-0.0018589	0.00071862	-0.00059361	0.00076686	-0.0014936	0.00057737	-0.0067837	0.0026224	0.0018915	-0.0024436	-0.0041378	0.0015996	0.002471	-0.0031922	
1592.797	2	1	0	131072	255	-0.0028547	0.0036878	-0.0019349	0.00074799	-0.0005672	0.00073274	-0.0015391	0.00059498	-0.0071339	0.0027578	0.0019345	-0.0024992	-0.0041492	0.001604	0.002567	-0.0033162	
1592.922	2	1	0	131072	255	-0.003016	0.0038962	-0.0017228	0.000666	-0.00070348	0.0009088	-0.0011606	0.00044867	-0.0073178	0.0028289	0.0019874	-0.0025674	-0.0041897	0.0016196	0.0026455	-0.0034176	
1593.072	2	1	0	131072	255	-0.0036256	0.0046838	-0.0014401	0.00055669	-0.00099063	0.0012797	-0.00069795	0.00026981	-0.0065842	0.0025453	0.0019155	-0.0024746	-0.0041026	0.001586	0.0025384	-0.0032792	
1593.272	2	1	0	131072	255	-0.0041356	0.0053426	-0.0012645	0.00048884	-0.0012294	0.0015882	-0.00050559	0.00019545	-0.0056771	0.0021946	0.0018282	-0.0023618	-0.0040648	0.0015714	0.0024055	-0.0031076	
1593.422	2	1	0	131072	255	-0.0041564	0.0053695	-0.0012811	0.00049524	-0.0012105	0.0015638	-0.0006211	0.0002401	-0.0052616	0.002034	0.0018343	-0.0023696	-0.0040853	0.0015793	0.0024084	-0.0031113	
1593.548	2	1	0	131072	255	-0.0039704	0.0051292	-0.0014333	0.00055407	-0.0010949	0.0014145	-0.00091903	0.00035527	-0.0047026	0.0018179	0.0018765	-0.0024242	-0.0040941	0.0015827	0.002479	-0.0032025	
1593.673	2	1	0	131072	255	-0.0036591	0.004727	-0.0016253	0.0006283	-0.00089066	0.0011506	-0.0011913	0.00046054	-0.0046963	0.0018155	0.0019372	-0.0025026	-0.0042298	0.0016351	0.0026306	-0.0033983	
1593.823	2	1	0	131072	255	-0.0033317	0.0043041	-0.0017494	0.00067627	-0.00073516	0.00094971	-0.0014027	0.00054226	-0.0050338	0.001946	0.0019974	-0.0025804	-0.0043341	0.0016755	0.0027612	-0.0035671	
1594.021	2	1	0	131072	255	-0.0031889	0.0041196	-0.0017093	0.00066077	-0.00069657	0.00089986	-0.001446	0.00055897	-0.0050506	0.0019524	0.0020133	-0.0026008	-0.0043475	0.0016806	0.0027735	-0.0035829	
1594.173	2	1	0	131072	255	-0.003352	0.0043303	-0.0016224	0.0006272	-0.0008006	0.0010343	-0.0012251	0.00047361	-0.0048556	0.0018771	0.0019508	-0.0025202	-0.0042592	0.0016465	0.0026259	-0.0033922	
1594.298	2	1	0	131072	255	-0.0037946	0.0049021	-0.0014289	0.00055238	-0.0010521	0.0013592	-0.00085119	0.00032905	-0.0044716	0.0017286	0.0019209	-0.0024815	-0.0042132	0.0016287	0.0025544	-0.0032999	
1594.422	2	1	0	131072	255	-0.0040143	0.0051859	-0.0014878	0.00057515	-0.0010846	0.0014011	-0.00090222	0.00034878	-0.0067208	0.0025981	0.0019203	-0.0024808	-0.0045654	0.0017649	0.0027076	-0.0034979	
1594.573	2	1	0	131072	255	-0.0036649	0.0047345	-0.0016698	0.00064549	-0.00088579	0.0011443	-0.0008683	0.00033566	-0.0062615	0.0024206	0.0019755	-0.0025521	-0.0047347	0.0018303	0.0027119	-0.0035034	
1594.772	2	1	0	131072	255	-0.0031776	0.004105	-0.0020119	0.00077774	-0.00065972	0.00085226	-0.001	0.00038658	-0.0045678	0.0017658	0.0022068	-0.0028508	-0.0049044	0.0018959	0.0026144	-0.0033774	
1594.923	2	1	0	131072	255	-0.0025665	0.0033156	-0.0025927	0.0010023	-0.00031794	0.00041073	-0.0015449	0.00059722	-0.0069968	0.0027048	0.0024346	-0.0031451	-0.0052876	0.002044	0.0028503	-0.0036821	
1595.047	2	1	0	196608	255	-0.0015077	0.0019478	-0.0034748	0.0013433	0.0003212	-0.00041494	-0.0030715	0.0011874	-0.017668	0.00683	0.0025837	-0.0033378	-0.0062449	0.0024141	0.0033557	-0.0043351	
1595.172	2	1	0	196608	255	0.00070934	-0.00091636	-0.0057238	0.0022127	0.0018836	-0.0024333	-0.0068129	0.0026337	-0.048542	0.018765	0.0033101	-0.0042762	-0.009197	0.0035554	0.0052859	-0.0068286	
1595.324	2	1	0	196608	255	0.0037167	-0.0048015	-0.008051	0.0031123	0.0039122	-0.005054	-0.0099511	0.0038469	-0.07829	0.030265	0.0045704	-0.0059043	-0.011512	0.0044502	0.0077719	-0.01004	
1595.523	2	1	0	196608	255	0.0049675	-0.0064173	-0.0086659	0.00335	0.0046324	-0.0059843	-0.010553	0.0040794	-0.08153	0.031518	0.0049247	-0.006362	-0.011561	0.0044691	0.0081942	-0.010586	
1595.674	2	1	0	196608	255	0.0045449	-0.0058713	-0.0077019	0.0029774	0.0041802	-0.0054002	-0.0091418	0.003534	-0.070552	0.027274	0.0044446	-0.0057417	-0.010439	0.0040355	0.0073382	-0.0094798	
1595.798	2	1	0	131072	255	0.0027952	-0.0036109	-0.0056362	0.0021788	0.0027766	-0.0035869	-0.0063714	0.002463	-0.051936	0.020077	0.0036198	-0.0046762	-0.0085042	0.0032875	0.0059392	-0.0076725	
1595.948	2	1	0	131072	255	0.001607	-0.002076	-0.0046608	0.0018018	0.0019989	-0.0025823	-0.0052242	0.0020196	-0.042882	0.016577	0.0031771	-0.0041043	-0.0076529	0.0029584	0.0052697	-0.0068077	
1596.073	2	1	0	131072	255	0.0011428	-0.0014763	-0.0042237	0.0016328	0.0016569	-0.0021405	-0.0046558	0.0017998	-0.040185	0.015535	0.0029449	-0.0038044	-0.0071487	0.0027635	0.0049378	-0.006379	
1596.273	2	1	0	131072	255	0.00057338	-0.00074072	-0.0036374	0.0014061	0.001219	-0.0015747	-0.0038219	0.0014774	-0.034027	0.013154	0.0026895	-0.0034744	-0.0064422	0.0024904	0.0044317	-0.0057251	
1596.423	2	1	0	131072	255	-6.6121e-05	8.5418e-05	-0.0030563	0.0011815	0.00079459	-0.0010265	-0.0031176	0.0012052	-0.027051	0.010457	0.0024525	-0.0031683	-0.0058157	0.0022482	0.0040868	-0.0052795	
1596.549	2	1	0	131072	255	-0.00059485	0.00076846	-0.0027669	0.0010696	0.00045878	-0.00059267	-0.0027422	0.0010601	-0.02298	0.0088834	0.0023276	-0.003007	-0.0054686	0.002114	0.0039152	-0.0050578	
1596.698	2	1	0	131072	255	-0.00084454	0.001091	-0.0026632	0.0010295	0.00034465	-0.00044524	-0.0027195	0.0010513	-0.021776	0.0084182	0.002326	-0.0030048	-0.0053527	0.0020692	0.0038944	-0.005031	
1596.824	2	1	0	131072	255	-0.00087875	0.0011352	-0.0026903	0.00104	0.00037273	-0.00048151	-0.0027356	0.0010575	-0.021556	0.0083329	0.0023485	-0.003034	-0.0053951	0.0020856	0.0039749	-0.005135	
1597.024	2	1	0	131072	255	-0.00089878	0.0011611	-0.0026732	0.0010334	0.00032394	-0.00041848	-0.0027051	0.0010457	-0.021402	0.0082736	0.0023355	-0.0030172	-0.0053573	0.002071	0.0039444	-0.0050956	
1597.174	2	1	0	131072	255	-0.00095529	0.0012341	-0.0026807	0.0010363	0.00028913	-0.00037351	-0.0026155	0.0010111	-0.020572	0.0079528	0.0022981	-0.0029688	-0.0052918	0.0020457	0.0037669	-0.0048663	
1597.299	2	1	0	131072	255	-0.0010947	0.0014142	-0.0025562	0.00098818	0.00019718	-0.00025473	-0.0024507	0.0009474	-0.020214	0.0078142	0.0022453	-0.0029005	-0.0052109	0.0020144	0.0036932	-0.0047711	
1597.423	2	1	0	131072	255	-0.0011647	0.0015047	-0.0024924	0.00096348	0.00015998	-0.00020667	-0.0025236	0.00097555	-0.019555	0.0075596	0.0022229	-0.0028716	-0.0051621	0.0019955	0.0036751	-0.0047477	
1597.574	2	1	0	131072	255	-0.0010429	0.0013473	-0.0026154	0.001011	0.00020203	-0.00026099	-0.0026738	0.0010336	-0.018877	0.0072975	0.0022462	-0.0029018	-0.005151	0.0019913	0.0036935	-0.0047714	
1597.773	3	1	0	131072	255	-0.00093552	0.0012085	-0.0027701	0.0010709	0.00032504	-0.0004199	-0.002912	0.0011257	-0.01883	0.0072794	0.0022903	-0.0029588	-0.0052857	0.0020433	0.0037515	-0.0048463	
1597.924	3	1	0	131072	255	-0.000915	0.001182	-0.0027925	0.0010795	0.00041267	-0.00053311	-0.0028754	0.0011116	-0.018511	0.0071558	0.0023384	-0.0030209	-0.0052324	0.0020227	0.0037342	-0.0048241	
1598.050	3	1	0	131072	255	-0.00085134	0.0010998	-0.0027459	0.0010615	0.0003831	-0.0004949	-0.0026003	0.0010052	-0.01782	0.0068888	0.002239	-0.0028925	-0.0050813	0.0019643	0.0034953	-0.0045154	
1598.199	3	1	0	131072	255	-0.001454	0.0018783	-0.0023876	0.00092297	-4.0871e-06	5.28e-06	-0.0021247	0.00082135	-0.016437	0.0063543	0.0021449	-0.0027709	-0.004991	0.0019294	0.0033077	-0.004273	
1598.325	3	1	0	131072	255	-0.0011317	0.001462	-0.0030263	0.0011699	0.00032406	-0.00041864	-0.0031794	0.0012291	-0.021711	0.0083929	0.0021612	-0.002792	-0.0056732	0.0021931	0.0035697	-0.0046115	
1598.524	3	1	0	196608	255	0.00060498	-0.00078154	-0.0047612	0.0018406	0.0015573	-0.0020118	-0.0056686	0.0021914	-0.024981	0.0096571	0.0024216	-0.0031284	-0.006594	0.0025491	0.0036885	-0.004765	
1598.675	3	1	0	196608	255	0.0028981	-0.0037439	-0.007013	0.0027111	0.0032447	-0.0041917	-0.0084293	0.0032586	-0.02588	0.010005	0.0027143	-0.0035065	-0.0070061	0.0027084	0.003685	-0.0047604	
1598.799	3	1	0	196608	255	0.0050437	-0.0065157	-0.0091083	0.0035211	0.0048981	-0.0063276	-0.011844	0.0045786	-0.04509	0.017431	0.0032293	-0.0041718	-0.0090978	0.003517	0.0047705	-0.0061627	
1598.924	3	1	0	196608	255	0.0067201	-0.0086813	-0.0099833	0.0038593	0.0060249	-0.0077833	-0.012949	0.0050057	-0.066981	0.025893	0.0039795	-0.0051409	-0.010329	0.0039929	0.0061837	-0.0079885	
1599.074	3	1	0	196608	255	0.005988	-0.0077356	-0.0082614	0.0031937	0.0051031	-0.0065925	-0.0099404	0.0038427	-0.061153	0.02364	0.0036173	-0.0046731	-0.0092689	0.0035832	0.0055993	-0.0072335	
1599.274	3	1	0	196608	255	0.0046466	-0.0060027	-0.0069997	0.0027059	0.0040927	-0.0052871	-0.0084228	0.003256	-0.054803	0.021185	0.0032654	-0.0042185	-0.0086052	0.0033266	0.0050336	-0.0065026	
1599.424	3	1	0	196608	255	0.0041531	-0.0053652	-0.0069407	0.0026831	0.0037843	-0.0048888	-0.0087713	0.0033908	-0.05319	0.020562	0.003254	-0.0042037	-0.008573	0.0033141	0.0048635	-0.006283	
1599.699	3	1	0	196864	255	0	0	0	0	0	0	0	0	0	0	0	0	0	0	0	0	
1599.824	3	1	0	0	255	0	0	0	0	0	0	0	0	0	0	0	0	0	0	0	0	
1600.025	3	1	0	0	255	0	0	0	0	0	0	0	0	0	0	0	0	0	0	0	0	
1600.174	3	1	0	256	255	0	0	0	0	0	0	0	0	0	0	0	0	0	0	0	0	
1600.300	3	1	0	0	255	0	0	0	0	0	0	0	0	0	0	0	0	0	0	0	0	
1600.450	3	1	0	0	255	0	0	0	0	0	0	0	0	0	0	0	0	0	0	0	0	
1600.774	3	1	0	65792	255	0	0	0	0	0	0	0	0	0	0	0	0	0	0	0	0	
1600.925	3	1	0	65536	255	0	0	0	0	0	0	0	0	0	0	0	0	0	0	0	0	
1601.049	3	1	0	65536	255	0	0	0	0	0	0	0	0	0	0	0	0	0	0	0	0	
1601.198	3	1	0	65792	255	0	0	0	0	0	0	0	0	0	0	0	0	0	0	0	0	
1601.324	3	1	0	131072	255	0	0	0	0	0	0	0	0	0	0	0	0	0	0	0	0	
1601.524	3	1	0	131072	255	0	0	0	0	0	0	0	0	0	0	0	0	0	0	0	0	
1601.799	3	1	0	131328	255	0	0	0	0	0	0	0	0	0	0	0	0	0	0	0	0	
1601.949	3	1	0	131072	255	0	0	0	0	0	0	0	0	0	0	0	0	0	0	0	0	
1602.150	3	1	0	131072	255	0	0	0	0	0	0	0	0	0	0	0	0	0	0	0	0	
1602.424	3	1	0	256	255	0	0	0	0	0	0	0	0	0	0	0	0	0	0	0	0	
1602.575	3	1	0	0	255	0	0	0	0	0	0	0	0	0	0	0	0	0	0	0	0	
1602.700	3	1	0	0	255	0	0	0	0	0	0	0	0	0	0	0	0	0	0	0	0	
1602.900	3	1	0	256	255	0	0	0	0	0	0	0	0	0	0	0	0	0	0	0	0	
1603.024	3	1	0	0	255	0	0	0	0	0	0	0	0	0	0	0	0	0	0	0	0	
1603.175	3	1	0	0	255	0	0	0	0	0	0	0	0	0	0	0	0	0	0	0	0	
1603.450	3	1	0	256	255	0	0	0	0	0	0	0	0	0	0	0	0	0	0	0	0	
1603.651	3	1	0	0	255	0	0	0	0	0	0	0	0	0	0	0	0	0	0	0	0	
1603.800	3	1	0	0	255	0	0	0	0	0	0	0	0	0	0	0	0	0	0	0	0	
1604.076	3	1	0	65792	255	0	0	0	0	0	0	0	0	0	0	0	0	0	0	0	0	
1604.201	3	1	0	65536	255	0	0	0	0	0	0	0	0	0	0	0	0	0	0	0	0	
1604.400	3	1	0	65536	255	0	0	0	0	0	0	0	0	0	0	0	0	0	0	0	0	
1604.675	3	1	0	256	255	0	0	0	0	0	0	0	0	0	0	0	0	0	0	0	0	
1604.825	3	1	0	65536	255	0	0	0	0	0	0	0	0	0	0	0	0	0	0	0	0	
1604.950	3	1	0	65536	255	0	0	0	0	0	0	0	0	0	0	0	0	0	0	0	0	
1605.150	3	1	0	65792	255	0	0	0	0	0	0	0	0	0	0	0	0	0	0	0	0	
1605.300	3	1	0	0	255	0	0	0	0	0	0	0	0	0	0	0	0	0	0	0	0	
1605.426	3	1	0	0	255	0	0	0	0	0	0	0	0	0	0	0	0	0	0	0	0	
1605.575	3	1	0	256	255	0	0	0	0	0	0	0	0	0	0	0	0	0	0	0	0	
1605.700	3	1	0	0	255	0	0	0	0	0	0	0	0	0	0	0	0	0	0	0	0	
1605.901	3	1	0	0	255	0	0	0	0	0	0	0	0	0	0	0	0	0	0	0	0	
1606.051	3	1	0	0	255	0	0	0	0	0	0	0	0	0	0	0	0	0	0	0	0	
1606.176	3	1	0	0	255	0	0	0	0	0	0	0	0	0	0	0	0	0	0	0	0	
1606.326	4	1	0	0	255	0	0	0	0	0	0	0	0	0	0	0	0	0	0	0	0	
1606.451	4	1	0	0	255	0	0	0	0	0	0	0	0	0	0	0	0	0	0	0	0	
1606.652	4	1	0	0	255	0	0	0	0	0	0	0	0	0	0	0	0	0	0	0	0	
1606.801	4	1	0	0	255	0	0	0	0	0	0	0	0	0	0	0	0	0	0	0	0	
1606.927	4	1	0	0	255	0	0	0	0	0	0	0	0	0	0	0	0	0	0	0	0	
1607.077	4	1	0	0	255	-0.0025909	0.0033471	0.0021191	-0.00081918	-0.0019495	0.0025185	0.0033406	-0.0012914	0.013306	-0.0051436	-0.00062059	0.00080171	0.001988	-0.00076851	-0.0013513	0.0017456	
1607.202	4	1	0	0	255	-0.0027463	0.0035479	0.0022492	-0.00086948	-0.0020811	0.0026885	0.0036508	-0.0014113	0.014119	-0.005458	-0.00071174	0.00091946	0.0021566	-0.00083369	-0.0014395	0.0018596	
1607.401	4	1	0	0	255	-0.002709	0.0034997	0.0021823	-0.00084362	-0.0019741	0.0025503	0.003504	-0.0013546	0.013809	-0.0053382	-0.00069803	0.00090176	0.0020356	-0.00078692	-0.0013687	0.0017682	
1607.552	4	1	0	0	255	-0.0025532	0.0032983	0.0019657	-0.00075988	-0.0018248	0.0023574	0.0031017	-0.0011991	0.011962	-0.0046241	-0.00061322	0.00079219	0.0016524	-0.00063876	-0.0012275	0.0015857	
1607.676	4	1	0	0	255	-0.0023664	0.0030571	0.0018365	-0.00070993	-0.0016522	0.0021344	0.0029202	-0.0011289	0.0097357	-0.0037636	-0.00051624	0.00066691	0.0011731	-0.00045349	-0.00095368	0.001232	
1607.826	4	1	0	0	255	-0.0026867	0.0034708	0.0020572	-0.00079528	-0.0018949	0.0024479	0.0033946	-0.0013123	0.010634	-0.0041109	-0.00049267	0.00063645	0.0012782	-0.00049412	-0.0010217	0.0013198	
1607.951	4	1	0	0	255	-0.0031339	0.0040485	0.0023521	-0.00090928	-0.0022482	0.0029044	0.0042123	-0.0016284	0.015138	-0.0058519	-0.0005169	0.00066776	0.0018144	-0.00070142	-0.001433	0.0018513	
1608.152	4	1	0	0	255	-0.0036336	0.0046941	0.0025501	-0.0009858	-0.0026028	0.0033624	0.0048018	-0.0018562	0.021014	-0.0081234	-0.00049727	0.0006424	0.0022108	-0.00085464	-0.0018232	0.0023553	
1608.301	4	1	0	0	255	-0.004116	0.0053173	0.0025492	-0.00098547	-0.0028237	0.0036478	0.0049662	-0.0019198	0.02513	-0.0097145	-0.00039482	0.00051005	0.0022276	-0.00086112	-0.0020343	0.002628	
1608.427	4	1	0	0	255	-0.0041703	0.0053875	0.0023792	-0.00091973	-0.0027589	0.0035641	0.0046967	-0.0018156	0.024771	-0.0095758	-0.00037596	0.00048569	0.0020265	-0.00078338	-0.0019639	0.0025371	
1608.577	4	1	0	0	255	-0.0033444	0.0043204	0.0017091	-0.0006607	-0.0020346	0.0026284	0.0033398	-0.0012911	0.013998	-0.0054115	-0.00031798	0.00041078	0.0010324	-0.0003991	-0.0012233	0.0015804	
1608.702	4	1	0	0	255	-0.0029602	0.0038241	0.0016259	-0.00062855	-0.0019059	0.0024622	0.0036007	-0.001392	0.013615	-0.0052632	-0.00015333	0.00019807	0.00090789	-0.00035097	-0.0010586	0.0013676	
1608.927	4	1	0	0	255	-0.0036437	0.0047071	0.0020741	-0.00080179	-0.0024583	0.0031757	0.0044771	-0.0017308	0.020434	-0.0078991	-0.00015668	0.00020241	0.0015018	-0.00058055	-0.0015768	0.002037	
1609.052	4	1	0	0	255	-0.0040842	0.0052762	0.0023447	-0.0009064	-0.0027135	0.0035054	0.0049989	-0.0019325	0.024273	-0.0093832	-0.00020719	0.00026766	0.0018573	-0.00071797	-0.0018407	0.0023779	
1609.177	4	1	0	0	255	-0.0043385	0.0056047	0.0024044	-0.0009295	-0.0028273	0.0036525	0.0051127	-0.0019764	0.02607	-0.010078	-0.00017088	0.00022075	0.0019709	-0.00076189	-0.0019368	0.0025021	
1609.327	4	1	0	0	255	-0.0044272	0.0057193	0.0023239	-0.00089837	-0.0028415	0.0036707	0.005072	-0.0019607	0.026873	-0.010388	-9.4936e-05	0.00012264	0.0019215	-0.0007428	-0.0019781	0.0025554	
1609.452	4	1	0	0	255	-0.004489	0.0057991	0.0022158	-0.00085657	-0.0028848	0.0037268	0.0050426	-0.0019493	0.027084	-0.01047	2.4343e-06	-3.1447e-06	0.0018514	-0.00071572	-0.0018961	0.0024495	
1609.677	4	1	0	0	255	-0.0044248	0.0057162	0.002062	-0.00079712	-0.0027768	0.0035872	0.0049193	-0.0019017	0.026842	-0.010376	0.00011547	-0.00014917	0.0017477	-0.00067563	-0.0017852	0.0023062	
1609.802	4	1	0	0	255	-0.0043875	0.0056681	0.0020743	-0.00080188	-0.0027374	0.0035363	0.0048944	-0.001892	0.026957	-0.010421	0.00011235	-0.00014514	0.0017672	-0.00068316	-0.0017741	0.0022919	
1609.928	4	1	0	0	255	-0.0045516	0.00588	0.00215	-0.00083114	-0.0028636	0.0036994	0.0055108	-0.0021303	0.026861	-0.010384	7.0646e-05	-9.1265e-05	0.0019152	-0.00074036	-0.0018403	0.0023774	
1610.078	4	1	0	0	255	-0.0049842	0.0064388	0.0022706	-0.00087774	-0.0030985	0.0040029	0.0057297	-0.002215	0.027111	-0.01048	7.4724e-05	-9.6532e-05	0.0019637	-0.00075912	-0.0018589	0.0024014	
1610.203	4	1	0	0	255	-0.0050762	0.0065577	0.0023782	-0.00091934	-0.0030738	0.0039708	0.0055124	-0.002131	0.025434	-0.0098323	1.2524e-05	-1.6179e-05	0.0017055	-0.00065931	-0.0016906	0.002184	
1610.426	4	1	0	0	255	-0.0048666	0.006287	0.0022983	-0.00088845	-0.0029468	0.0038068	0.0053324	-0.0020614	0.024127	-0.009327	-1.6391e-06	2.1175e-06	0.0015015	-0.00058046	-0.0014671	0.0018952	
1610.553	4	1	0	0	255	-0.0046038	0.0059474	0.0021945	-0.00084833	-0.0027493	0.0035517	0.0050741	-0.0019615	0.021194	-0.0081931	2.3904e-06	-3.088e-06	0.0011451	-0.00044269	-0.0011029	0.0014247	
1610.677	4	1	0	0	255	-0.0043363	0.0056019	0.0021992	-0.00085016	-0.0026377	0.0034076	0.0049124	-0.001899	0.019378	-0.0074912	-0.00010939	0.00014131	0.000947	-0.00036609	-0.00097535	0.00126	
1610.827	4	1	0	0	255	-0.0042079	0.005436	0.0022665	-0.00087617	-0.002583	0.0033369	0.0047819	-0.0018486	0.017979	-0.0069501	-0.00020286	0.00026206	0.00073187	-0.00028292	-0.00090239	0.0011658	
1610.952	4	1	0	0	255	-0.0040833	0.005275	0.0022411	-0.00086636	-0.0025116	0.0032446	0.0045446	-0.0017568	0.016919	-0.0065404	-0.00023845	0.00030804	0.00059999	-0.00023194	-0.00076894	0.00099335	
1611.177	4	1	0	0	255	-0.0039362	0.005085	0.0021839	-0.00084426	-0.0023848	0.0030808	0.0043055	-0.0016644	0.015318	-0.0059216	-0.00016645	0.00021503	0.00030493	-0.00011788	-0.00054849	0.00070857	
1611.302	4	1	0	0	255	-0.0037154	0.0047997	0.0021019	-0.00081255	-0.0022207	0.0028688	0.004032	-0.0015587	0.011853	-0.0045821	-0.00012932	0.00016706	-5.2949e-05	2.0469e-05	-0.00028009	0.00036184	
1611.427	4	1	0	0	255	-0.0034525	0.0044601	0.0020185	-0.00078032	-0.0020528	0.002652	0.0038224	-0.0014777	0.0096053	-0.0037132	-0.0001059	0.0001368	-0.00019221	7.4303e-05	-0.00023068	0.000298	
1611.577	4	1	0	0	255	-0.0030723	0.0039689	0.0017295	-0.00066857	-0.0017489	0.0022593	0.0028117	-0.0010869	0.0031766	-0.001228	-0.00011128	0.00014376	-0.00092101	0.00035604	3.5629e-05	-4.6027e-05	
1611.778	4	1	0	0	255	-0.0020604	0.0026618	0.0012351	-0.00047746	-0.0010772	0.0013916	0.0015442	-0.00059695	-0.0062089	0.0024002	-2.9499e-05	3.8108e-05	-0.0016953	0.00065535	0.00058093	-0.00075048	
1611.927	4	1	0	0	255	-0.0012325	0.0015922	0.00087303	-0.00033749	-0.00056936	0.00073553	0.00067753	-0.00026192	-0.011819	0.0045689	-8.3855e-06	1.0833e-05	-0.002148	0.00083038	0.00095005	-0.0012273	
1612.053	4	1	0	0	255	-9.4389e-05	0.00012194	0.00017683	-6.8357e-05	0.00022077	-0.0002852	-0.00085635	0.00033105	-0.021009	0.0081217	0.00019602	-0.00025323	-0.0032182	0.0012441	0.0017087	-0.0022074	
1612.178	4	1	0	0	255	0.0006054	-0.00078209	-2.4363e-05	9.4183e-06	0.00063493	-0.00082024	-0.001442	0.00055746	-0.026001	0.010051	0.00023473	-0.00030324	-0.0037473	0.0014486	0.0020868	-0.0026958	
1612.328	4	1	0	0	255	0.00082004	-0.0010594	2.163e-06	-8.3618e-07	0.00073745	-0.00095268	-0.0018103	0.00069983	-0.028833	0.011146	0.00011808	-0.00015255	-0.0040697	0.0015732	0.0021886	-0.0028273	
1612.528	4	1	0	0	255	0.0015233	-0.0019678	-0.00059123	0.00022856	0.0013097	-0.0016919	-0.0030597	0.0011828	-0.037223	0.014389	0.00025097	-0.00032422	-0.0049598	0.0019174	0.0028514	-0.0036835	
1612.678	4	1	0	0	255	0.0019914	-0.0025726	-0.00060194	0.0002327	0.0015994	-0.0020662	-0.0031775	0.0012283	-0.038338	0.014821	0.00026433	-0.00034148	-0.0048668	0.0018814	0.0031409	-0.0040576	
1612.803	4	1	0	0	255	0.0015247	-0.0019697	0.00032097	-0.00012408	0.0010535	-0.0013609	-0.0013223	0.00051118	-0.029084	0.011243	-7.8885e-06	1.0191e-05	-0.0034943	0.0013508	0.002546	-0.003289	
1612.929	4	1	0	0	255	0.00012272	-0.00015854	0.001583	-0.00061193	-9.7184e-05	0.00012555	0.00087012	-0.00033637	-0.017649	0.0068228	-0.00033942	0.00043849	-0.0020915	0.00080851	0.0017377	-0.0022448	
1613.079	4	1	0	0	255	-0.0012338	0.0015939	0.0027108	-0.0010479	-0.0011154	0.0014409	0.0025267	-0.00097678	-0.0077713	0.0030042	-0.00069354	0.00089595	-0.00089079	0.00034436	0.00095294	-0.0012311	
1613.279	4	1	0	0	255	-0.0018198	0.0023509	0.0027543	-0.0010647	-0.0014563	0.0018813	0.0020618	-0.00079703	-0.005951	0.0023005	-0.00082209	0.001062	-0.00083992	0.00032469	0.00064795	-0.00083705	
1613.427	4	1	0	0	255	-0.0011611	0.0015	0.0036552	-0.001413	-0.00095885	0.0012387	0.0046009	-0.0017786	-0.010784	0.004169	-0.00074473	0.00096208	-0.0010628	0.00041084	0.00097723	-0.0012624	
1613.554	4	1	0	0	255	-0.0030283	0.0039121	0.00583	-0.0022537	-0.0022579	0.0029169	0.0079978	-0.0030918	-0.01949	0.0075344	-0.00081032	0.0010468	-0.0023891	0.00092357	0.0017365	-0.0022433	
1613.678	4	1	0	0	255	-0.0082829	0.0107	0.010012	-0.0038704	-0.0056873	0.0073471	0.013329	-0.0051526	-0.028698	0.011094	-0.00066295	0.00085643	-0.0035513	0.0013729	0.0027256	-0.003521	
1613.829	5	1	0	0	255	-0.012854	0.016605	0.011851	-0.0045813	-0.0075437	0.0097453	0.015983	-0.0061787	-0.023175	0.0089589	-0.001308	0.0016898	-0.0029546	0.0011422	0.0023226	-0.0030004	
1614.028	5	1	0	0	255	-0.013053	0.016863	0.011092	-0.0042879	-0.0074266	0.0095941	0.012276	-0.0047457	-0.038802	0.015	-0.00090335	0.001167	-0.0052936	0.0020464	0.0034175	-0.0044149	
1614.178	5	1	0	0	255	-0.0053824	0.0069533	0.0063272	-0.0024459	-0.003513	0.0045382	0.0058256	-0.002252	-0.054366	0.021017	0.00069101	-0.00089269	-0.0060171	0.0023261	0.0046101	-0.0059556	
1614.303	5	1	0	0	255	-0.0027124	0.003504	0.0036271	-0.0014022	-0.0021031	0.0027169	0.0043238	-0.0016715	-0.031792	0.01229	0.00085359	-0.0011027	-0.0029887	0.0011554	0.0031518	-0.0040717	
1614.453	5	1	0	0	255	-0.0034202	0.0044184	0.0036294	-0.001403	-0.002797	0.0036133	0.0046562	-0.0018	-0.019224	0.0074317	0.00058291	-0.00075303	-0.001517	0.00058645	0.0025953	-0.0033527	
1614.578	5	1	0	0	255	-0.0031624	0.0040853	0.0024319	-0.00094013	-0.0025925	0.0033492	0.0042605	-0.001647	-0.009169	0.0035445	0.0010171	-0.0013139	0.00010251	-3.9628e-05	0.0023433	-0.0030273	
1614.779	5	1	0	0	255	-0.0038258	0.0049424	0.002114	-0.00081722	-0.0030209	0.0039026	0.0062542	-0.0024177	0.0093323	-0.0036076	0.0010511	-0.0013579	0.0026905	-0.0010401	0.0015491	-0.0020012	
1614.929	5	1	0	0	255	-0.007881	0.010181	0.003348	-0.0012942	-0.0051236	0.006619	0.010157	-0.0039265	0.016023	-0.0061943	0.00031019	-0.00040072	0.0032549	-0.0012583	0.0011927	-0.0015408	
1615.054	5	1	0	0	255	-0.0067397	0.0087067	0.0045408	-0.0017554	-0.0042012	0.0054274	0.0094815	-0.0036653	-0.022323	0.0086294	0.00088419	-0.0011422	-0.0018619	0.00071978	0.0038453	-0.0049676	
1615.179	5	1	0	0	255	-0.0070441	0.0090999	0.0030206	-0.0011677	-0.0045145	0.0058321	0.0089762	-0.00347	0.0039156	-0.0015137	0.0011286	-0.001458	0.00068874	-0.00026625	0.0022137	-0.0028598	
1615.329	5	1	0	0	255	-0.0084345	0.010896	0.00345	-0.0013337	-0.0054794	0.0070786	0.010279	-0.0039736	0.029838	-0.011535	0.00024855	-0.0003211	0.0032637	-0.0012617	0.00059541	-0.00076918	
1615.529	5	1	0	0	255	-0.0090368	0.011674	0.004547	-0.0017578	-0.0059534	0.0076909	0.011658	-0.0045067	0.033175	-0.012824	-0.00025605	0.00033078	0.0032497	-0.0012562	0.00034753	-0.00044896	
1615.679	5	1	0	0	255	-0.0098192	0.012685	0.0067397	-0.0026054	-0.0065665	0.0084829	0.012866	-0.0049737	0.016941	-0.0065489	-0.00059623	0.00077024	0.00015182	-5.8692e-05	0.001375	-0.0017763	
1615.804	5	1	0	0	255	-0.0059639	0.0077045	0.005495	-0.0021242	-0.0039016	0.0050402	0.0065877	-0.0025467	-0.01922	0.0074299	-0.00019673	0.00025414	-0.0045289	0.0017508	0.0040004	-0.0051679	
1615.930	5	1	0	0	255	-0.0010554	0.0013634	0.0029897	-0.0011557	-0.00080701	0.0010425	-8.3948e-05	3.2452e-05	-0.034102	0.013183	-0.00019368	0.0002502	-0.0067015	0.0025906	0.0053675	-0.006934	
1616.080	5	1	0	0	255	0.0016301	-0.0021059	0.0014081	-0.00054434	0.00083804	-0.0010826	-0.0032417	0.0012532	-0.040556	0.015678	-0.00041286	0.00053336	-0.0076012	0.0029385	0.0060728	-0.0078451	
1616.280	5	1	0	0	255	0.0032379	-0.0041829	0.00032881	-0.00012711	0.0020541	-0.0026536	-0.0042332	0.0016365	-0.048151	0.018614	-0.00021894	0.00028284	-0.0080948	0.0031293	0.0066132	-0.0085433	
1616.430	5	1	0	0	255	0.0042379	-0.0054748	-0.0010071	0.00038931	0.0030255	-0.0039085	-0.0056184	0.002172	-0.05659	0.021876	0.00015391	-0.00019883	-0.0089375	0.003455	0.0071593	-0.0092487	
1616.555	5	1	0	0	255	0.0040665	-0.0052533	-0.00086384	0.00033394	0.0028208	-0.003644	-0.0055782	0.0021564	-0.059417	0.022969	0.00028239	-0.0003648	-0.0088964	0.0034392	0.007198	-0.0092987	
1616.705	5	1	0	0	255	0.0038942	-0.0050307	-0.0011368	0.00043947	0.0027066	-0.0034965	-0.0062002	0.0023968	-0.061088	0.023615	0.00037542	-0.00048499	-0.0090887	0.0035135	0.0072097	-0.0093139	
1616.830	5	1	0	0	255	0.0042197	-0.0054512	-0.0020293	0.00078448	0.0031206	-0.0040313	-0.0074303	0.0028724	-0.063365	0.024496	0.00053202	-0.00068729	-0.0092423	0.0035729	0.007363	-0.0095119	
1617.029	5	1	0	0	255	0.0053482	-0.006909	-0.0030631	0.0011841	0.0040737	-0.0052626	-0.0079933	0.00309	-0.065633	0.025372	0.00073573	-0.00095045	-0.0092077	0.0035595	0.0075359	-0.0097353	
1617.180	5	1	0	0	255	0.0044122	-0.0057	-0.0014824	0.00057307	0.003113	-0.0040216	-0.0063137	0.0024407	-0.059558	0.023024	0.00019619	-0.00025345	-0.0084621	0.0032712	0.006907	-0.0089228	
1617.304	5	1	0	0	255	0.0038562	-0.0049817	0.00026623	-0.00010292	0.0023908	-0.0030886	-0.0032974	0.0012747	-0.052968	0.020476	-0.00016187	0.00020911	-0.0071209	0.0027528	0.006336	-0.0081852	
1617.454	5	1	0	0	255	0.00089426	-0.0011553	0.0029637	-0.0011457	7.2541e-05	-9.3712e-05	0.0007626	-0.0002948	-0.035946	0.013896	-0.0012884	0.0016644	-0.0044669	0.0017268	0.0044201	-0.0057101	
1617.579	5	1	0	0	255	-0.00064551	0.0008339	0.0041215	-0.0015933	-0.0010769	0.0013912	0.0025116	-0.00097093	-0.028212	0.010906	-0.0017896	0.0023119	-0.0033618	0.0012996	0.0035508	-0.0045872	
1617.780	5	1	0	0	255	-0.0020762	0.0026822	0.0048889	-0.0018899	-0.0021464	0.0027728	0.0046129	-0.0017832	-0.019902	0.0076936	-0.0020954	0.0027069	-0.0020536	0.00079385	0.0027129	-0.0035046	
1617.929	5	1	0	0	255	-0.0027043	0.0034935	0.0052307	-0.0020221	-0.0025413	0.003283	0.0055565	-0.002148	-0.018309	0.0070779	-0.0023386	0.0030212	-0.0016519	0.00063858	0.0024381	-0.0031497	
1618.055	5	1	0	0	255	-0.0036173	0.0046731	0.0054886	-0.0021218	-0.0031854	0.004115	0.0068166	-0.0026352	-0.012965	0.0050121	-0.0024686	0.0031891	-0.00086761	0.0003354	0.0018247	-0.0023572	
1618.205	5	1	0	0	255	-0.0045604	0.0058914	0.0053137	-0.0020541	-0.0037156	0.0048	0.0074726	-0.0028887	-0.0056932	0.0022009	-0.0025175	0.0032522	0.00013713	-5.3013e-05	0.0012625	-0.001631	
1618.330	5	1	0	0	255	-0.004957	0.0064037	0.0049195	-0.0019018	-0.003822	0.0049375	0.0074144	-0.0028662	-0.004096	0.0015834	-0.0024108	0.0031144	0.00025208	-9.745e-05	0.0012909	-0.0016677	
1618.530	5	1	0	0	255	-0.0057727	0.0074575	0.00432	-0.00167	-0.0042353	0.0054713	0.0078983	-0.0030533	0.0084392	-0.0032624	-0.0021265	0.0027471	0.0018457	-0.00071352	0.00077314	-0.00099878	
1618.679	5	1	0	0	255	-0.0066456	0.0085851	0.0036085	-0.001395	-0.0046307	0.0059822	0.0084958	-0.0032843	0.021329	-0.0082451	-0.0014072	0.0018179	0.0031715	-0.001226	0.00016309	-0.00021069	
1618.805	5	1	0	0	255	-0.0071707	0.0092635	0.0044597	-0.001724	-0.0049013	0.0063317	0.0092186	-0.0035637	0.014191	-0.005486	-0.0012863	0.0016618	0.001874	-0.00072444	0.00025436	-0.0003286	
1618.955	5	1	0	0	255	-0.0072901	0.0094178	0.0071208	-0.0027527	-0.0051526	0.0066564	0.0099334	-0.00384	-0.0092755	0.0035857	-0.0018475	0.0023867	-0.0014591	0.00056404	0.0020105	-0.0025972	
1619.080	5	1	0	0	255	-0.0069213	0.0089414	0.0079204	-0.0030618	-0.0052149	0.0067369	0.011118	-0.0042981	-0.017552	0.0067851	-0.0018571	0.0023991	-0.0023746	0.00091797	0.0025392	-0.0032803	
1619.279	5	1	0	0	255	-0.0075636	0.0097711	0.0078342	-0.0030285	-0.0052291	0.0067552	0.010099	-0.0039041	-0.014713	0.0056877	-0.0021753	0.0028102	-0.002415	0.00093357	0.0022691	-0.0029314	
1619.430	5	1	0	0	255	-0.0064393	0.0083187	0.00765	-0.0029573	-0.0046811	0.0060473	0.0095066	-0.003675	-0.01592	0.0061542	-0.0023245	0.0030029	-0.0023194	0.00089664	0.0025197	-0.0032551	
1619.554	5	1	0	0	255	-0.006158	0.0079552	0.0076016	-0.0029386	-0.0046338	0.0059862	0.009582	-0.0037042	-0.015182	0.0058688	-0.0023305	0.0030106	-0.0023645	0.00091407	0.0025755	-0.0033271	
1619.704	5	1	0	0	255	-0.0063753	0.008236	0.0063243	-0.0024448	-0.0046487	0.0060055	0.0086249	-0.0033342	-0.0054195	0.002095	-0.0023671	0.003058	-0.00060878	0.00023534	0.001753	-0.0022646	
1619.831	5	1	0	0	255	-0.0055111	0.0071196	0.0051391	-0.0019867	-0.0041546	0.0053672	0.0075654	-0.0029246	0.0036047	-0.0013935	-0.0022283	0.0028786	0.00068598	-0.00026518	0.0010096	-0.0013042	
1620.030	5	1	0	0	255	-0.0056274	0.0072698	0.0057471	-0.0022217	-0.0043031	0.0055589	0.0086475	-0.0033429	0.006332	-0.0024478	-0.0023285	0.0030081	0.00023485	-9.0786e-05	0.0008353	-0.0010791	
1620.181	5	1	0	0	255	-0.0064773	0.0083677	0.00606	-0.0023426	-0.0046666	0.0060286	0.0093757	-0.0036244	0.0063576	-0.0024577	-0.0024154	0.0031203	0.00030025	-0.00011607	0.0009717	-0.0012553	
1620.329	5	1	0	0	255	-0.006513	0.0084139	0.0053587	-0.0020715	-0.004459	0.0057604	0.0082547	-0.0031911	0.0054836	-0.0021198	-0.0019864	0.0025662	-6.8045e-05	2.6305e-05	0.0010033	-0.0012962	
1620.455	5	1	0	0	255	-0.0059401	0.0076737	0.0056434	-0.0021816	-0.0041818	0.0054023	0.0082358	-0.0031837	0.0015133	-0.00058501	-0.0017908	0.0023134	-0.00040969	0.00015838	0.001452	-0.0018757	
1620.579	5	1	0	0	255	-0.0066351	0.0085716	0.0058808	-0.0022734	-0.0046642	0.0060254	0.0092422	-0.0035728	0.0065102	-0.0025167	-0.0018418	0.0023794	0.00081308	-0.00031432	0.0013002	-0.0016797	
1620.780	5	1	0	0	255	-0.0074621	0.0096399	0.0054796	-0.0021183	-0.0050386	0.0065092	0.0096204	-0.003719	0.0081903	-0.0031662	-0.0016679	0.0021546	0.00134	-0.00051801	0.00088575	-0.0011443	
1620.930	5	1	0	0	255	-0.0084515	0.010918	0.0062893	-0.0024313	-0.0056277	0.0072702	0.011292	-0.0043651	0.010468	-0.0040466	-0.0018028	0.0023289	0.001613	-0.00062356	0.00070239	-0.00090738	
1621.080	5	1	0	0	255	-0.0099371	0.012837	0.0067894	-0.0026246	-0.0063576	0.0082131	0.01222	-0.0047241	0.018317	-0.0070808	-0.0022963	0.0029664	0.0025095	-0.00097011	0.00032692	-0.00042233	
1621.205	5	1	0	0	255	-0.010268	0.013265	0.0066399	-0.0025668	-0.0065301	0.008436	0.012499	-0.0048318	0.024267	-0.0093809	-0.0021977	0.002839	0.003076	-0.0011891	-8.8378e-05	0.00011417	
1621.405	6	1	0	0	255	-0.0097187	0.012555	0.0056594	-0.0021878	-0.0061403	0.0079324	0.011328	-0.0043791	0.028266	-0.010927	-0.0020506	0.0026491	0.0035155	-0.001359	-0.00024518	0.00031674	
1621.531	6	1	0	0	255	-0.010693	0.013814	0.0078106	-0.0030194	-0.0068046	0.0087905	0.013355	-0.0051629	0.0084017	-0.0032479	-0.002192	0.0028317	0.00043742	-0.0001691	0.00089525	-0.0011565	
1621.680	6	1	0	0	255	-0.011629	0.015023	0.0092996	-0.003595	-0.0073487	0.0094934	0.014965	-0.0057853	-0.001305	0.00050449	-0.0021802	0.0028166	-0.00088037	0.00034033	0.0018581	-0.0024003	
1621.806	6	1	0	0	255	-0.011145	0.014398	0.0090654	-0.0035045	-0.0071122	0.0091879	0.014653	-0.0056644	-0.0032172	0.0012437	-0.0025751	0.0033267	-0.0003723	0.00014392	0.0018273	-0.0023607	
1621.956	6	1	0	0	255	-0.010593	0.013685	0.0091271	-0.0035283	-0.0069487	0.0089767	0.014377	-0.0055578	-0.0048076	0.0018585	-0.002898	0.0037437	-0.00028806	0.00011136	0.0017028	-0.0021998	
1622.156	6	1	0	0	255	-0.010346	0.013365	0.0092281	-0.0035674	-0.0068731	0.0088791	0.01431	-0.0055319	-0.0044451	0.0017184	-0.0030311	0.0039158	-8.6954e-05	3.3614e-05	0.0016389	-0.0021172	
1622.280	6	1	0	0	255	-0.010259	0.013252	0.0092312	-0.0035686	-0.0068498	0.0088489	0.014263	-0.0055139	-0.004056	0.0015679	-0.0031303	0.0040439	-0.00011484	4.4395e-05	0.0015562	-0.0020104	
1622.431	6	1	0	0	255	-0.010358	0.013381	0.0091997	-0.0035564	-0.006889	0.0088995	0.014586	-0.0056388	-0.0030951	0.0011965	-0.0031432	0.0040605	6.7354e-05	-2.6038e-05	0.001507	-0.0019468	
1622.581	6	1	0	0	255	-0.010504	0.013569	0.0091738	-0.0035464	-0.006913	0.0089306	0.014741	-0.0056984	-0.0018483	0.00071451	-0.0030858	0.0039864	0.00012501	-4.8325e-05	0.0014041	-0.0018139	
1622.705	6	1	0	0	255	-0.01022	0.013202	0.0093119	-0.0035998	-0.0068413	0.008838	0.014659	-0.0056666	-0.0035974	0.0013907	-0.0031165	0.0040261	-2.8116e-05	1.0869e-05	0.0014955	-0.0019319	
1622.905	6	1	0	0	255	-0.010232	0.013218	0.0094073	-0.0036366	-0.0069655	0.0089984	0.014705	-0.0056847	-0.0030062	0.0011621	-0.0032483	0.0041963	9.9477e-05	-3.8455e-05	0.0014219	-0.0018369	
1623.031	6	1	0	0	255	-0.010207	0.013186	0.0095506	-0.003692	-0.0069399	0.0089653	0.0148	-0.0057214	-0.0019591	0.00075735	-0.003302	0.0042657	0.00023344	-9.0243e-05	0.0013764	-0.0017781	
1623.182	6	1	0	0	255	-0.010653	0.013762	0.0096291	-0.0037224	-0.0070623	0.0091234	0.014882	-0.0057531	-0.0012874	0.00049767	-0.0033488	0.0043262	0.00016468	-6.366e-05	0.0013142	-0.0016977	
1623.332	6	1	0	0	255	-0.009703	0.012535	0.0098875	-0.0038223	-0.0066108	0.0085402	0.013535	-0.0052322	-0.0081369	0.0031455	-0.0032814	0.004239	-0.00075706	0.00029266	0.0018615	-0.0024048	
1623.456	6	1	0	0	255	-0.0075186	0.0097129	0.0096538	-0.0037319	-0.0055619	0.0071852	0.011385	-0.0044013	-0.015497	0.0059907	-0.0031142	0.004023	-0.0018775	0.0007258	0.0026356	-0.0034048	
1623.655	6	1	0	0	255	-0.0053738	0.0069421	0.009147	-0.003536	-0.0043514	0.0056213	0.0085319	-0.0032982	-0.019323	0.0074698	-0.0032178	0.0041569	-0.002676	0.0010345	0.0032198	-0.0041596	
1623.806	6	1	0	0	255	-0.0029313	0.0037868	0.0075141	-0.0029048	-0.0026823	0.0034651	0.0045882	-0.0017737	-0.023722	0.0091705	-0.003169	0.0040938	-0.0037602	0.0014536	0.0038705	-0.0050001	
1623.931	6	1	0	0	255	-0.00056273	0.00072697	0.0061185	-0.0023653	-0.0011183	0.0014447	0.0025209	-0.00097454	-0.026855	0.010381	-0.0028924	0.0037365	-0.0043713	0.0016898	0.0044508	-0.0057498	
1624.081	6	1	0	0	255	-0.0024901	0.0032169	0.0092193	-0.0035639	-0.003281	0.0042386	0.0094565	-0.0036556	-0.017919	0.0069269	-0.0032612	0.0042129	-0.0022093	0.00085406	0.0035275	-0.004557	
1624.206	6	1	0	0	255	-0.0070242	0.0090742	0.010964	-0.0042383	-0.0058836	0.0076008	0.013818	-0.0053419	-0.0098283	0.0037994	-0.0036673	0.0047376	-0.00069283	0.00026783	0.0023498	-0.0030357	
1624.406	6	1	0	0	255	-0.008623	0.01114	0.010802	-0.0041758	-0.0064806	0.008372	0.01435	-0.0055473	-0.0094146	0.0036394	-0.0036008	0.0046517	-0.00058441	0.00022592	0.0021212	-0.0027403	
1624.556	6	1	0	0	255	-0.009273	0.011979	0.010737	-0.0041507	-0.0067526	0.0087234	0.014881	-0.0057527	-0.0092425	0.0035729	-0.0035124	0.0045376	-0.0005541	0.0002142	0.0020508	-0.0026493	
1624.681	6	1	0	0	255	-0.0097016	0.012533	0.010864	-0.0041998	-0.0069546	0.0089844	0.015334	-0.0059278	-0.0097197	0.0037574	-0.0034705	0.0044833	-0.00068488	0.00026476	0.0020065	-0.0025921	
1624.831	6	1	0	0	255	-0.0098614	0.012739	0.010981	-0.0042451	-0.007094	0.0091645	0.01541	-0.005957	-0.010737	0.0041505	-0.0033321	0.0043046	-0.00084507	0.00032668	0.0021415	-0.0027665	
1624.957	6	1	0	0	255	-0.01001	0.012931	0.010928	-0.0042243	-0.0071207	0.0091989	0.015186	-0.0058705	-0.011495	0.0044437	-0.0032429	0.0041894	-0.0010588	0.00040931	0.0022254	-0.0028749	
1625.157	6	1	0	0	255	-0.0097469	0.012592	0.010778	-0.0041664	-0.0069635	0.0089958	0.014744	-0.0056995	-0.012864	0.0049728	-0.0031055	0.0040119	-0.0013461	0.00052036	0.0024084	-0.0031113	
1625.307	6	1	0	0	255	-0.0088495	0.011432	0.010742	-0.0041525	-0.0065731	0.0084914	0.015081	-0.0058301	-0.010328	0.0039925	-0.003355	0.0043342	-0.00067849	0.00026229	0.0021836	-0.0028209	
1625.432	6	1	0	0	255	-0.010502	0.013566	0.011485	-0.0044397	-0.007341	0.0094834	0.016468	-0.006366	-0.0070153	0.0027119	-0.003894	0.0050305	0.000224	-8.6593e-05	0.0016815	-0.0021722	
1625.582	6	1	0	0	255	-0.011713	0.015131	0.012563	-0.0048565	-0.007929	0.010243	0.017272	-0.0066768	-0.0061774	0.002388	-0.0042858	0.0055366	0.00043164	-0.00016686	0.0016135	-0.0020844	
1625.706	6	1	0	0	255	-0.011601	0.014987	0.013682	-0.005289	-0.0079937	0.010327	0.017147	-0.0066285	-0.0073021	0.0028228	-0.0044649	0.0057681	-0.00029558	0.00011427	0.0020711	-0.0026755	
1625.906	6	1	0	0	255	-0.010585	0.013674	0.014731	-0.0056946	-0.007657	0.0098917	0.015561	-0.0060155	-0.0082303	0.0031817	-0.0044165	0.0057055	-0.0014816	0.00057276	0.0028334	-0.0036604	
1626.056	6	1	0	0	255	-0.0072463	0.0093612	0.013976	-0.0054028	-0.0059669	0.0077084	0.012369	-0.0047817	-0.0097119	0.0037544	-0.0041385	0.0053463	-0.002536	0.00098036	0.0036957	-0.0047743	
1626.183	6	1	0	0	255	-0.0054133	0.0069932	0.012957	-0.0050091	-0.0048967	0.0063258	0.010372	-0.0040094	-0.01023	0.0039548	-0.0041632	0.0053783	-0.0024664	0.00095347	0.0038477	-0.0049707	
1626.333	6	1	0	0	255	-0.0067078	0.0086656	0.01408	-0.0054429	-0.0061366	0.0079276	0.014495	-0.0056036	-0.0076423	0.0029543	-0.0045011	0.0058147	-0.00055849	0.0002159	0.0030479	-0.0039375	
1626.457	6	1	0	0	255	-0.009645	0.01246	0.01369	-0.0052921	-0.0074576	0.0096342	0.016378	-0.0063313	-0.0055148	0.0021319	-0.0047641	0.0061545	0.0011792	-0.00045587	0.0018973	-0.002451	
1626.657	6	1	0	0	255	-0.010056	0.012991	0.012581	-0.0048637	-0.0074169	0.0095815	0.015728	-0.0060801	-0.0049856	0.0019273	-0.004711	0.0060859	0.0014577	-0.00056352	0.0014189	-0.001833	
1626.807	6	1	0	0	255	-0.0097555	0.012603	0.01239	-0.0047898	-0.0072891	0.0094165	0.015735	-0.0060826	-0.0088648	0.0034269	-0.0041989	0.0054244	0.00049009	-0.00018946	0.0018366	-0.0023726	
1626.932	6	1	0	0	255	-0.010029	0.012956	0.012467	-0.0048193	-0.0073655	0.0095152	0.015924	-0.0061559	-0.011707	0.0045257	-0.0036818	0.0047563	-0.00020676	7.9928e-05	0.0022813	-0.0029471	
1627.082	6	1	0	0	255	-0.010199	0.013176	0.012557	-0.0048543	-0.0074257	0.0095929	0.016533	-0.0063914	-0.012089	0.0046733	-0.0036902	0.0047672	-0.00017912	6.9243e-05	0.0023015	-0.0029732	
1627.207	6	1	0	0	255	-0.011598	0.014982	0.012713	-0.0049145	-0.008014	0.010353	0.017488	-0.0067604	-0.0072954	0.0028202	-0.003986	0.0051494	0.0001465	-5.6633e-05	0.0019757	-0.0025523	
1627.407	6	1	0	0	255	-0.012732	0.016447	0.013005	-0.0050275	-0.0083807	0.010827	0.017481	-0.0067579	-0.0044312	0.001713	-0.004178	0.0053974	-0.00015464	5.978e-05	0.001786	-0.0023072	
1627.557	6	1	0	0	255	-0.010726	0.013856	0.012542	-0.0048483	-0.0077143	0.0099657	0.016032	-0.0061975	-0.0097896	0.0037844	-0.0037591	0.0048562	-0.00065362	0.00025267	0.0022589	-0.0029181	
1627.683	6	1	0	0	255	-0.0096504	0.012467	0.012183	-0.0047096	-0.0072756	0.009399	0.015661	-0.0060541	-0.012498	0.0048316	-0.0034573	0.0044663	-0.00075823	0.00029311	0.0024445	-0.003158	
1627.832	6	1	0	0	255	-0.0096532	0.01247	0.012004	-0.0046406	-0.0071559	0.0092444	0.015424	-0.0059625	-0.011431	0.0044189	-0.0034886	0.0045068	-0.00080553	0.0003114	0.0023783	-0.0030724	
1627.958	6	1	0	0	255	-0.0091245	0.011788	0.012115	-0.0046835	-0.0068958	0.0089083	0.014872	-0.0057493	-0.012573	0.0048606	-0.0036942	0.0047724	-0.00097217	0.00037582	0.002322	-0.0029997	
1628.183	6	1	0	0	255	-0.0089115	0.011512	0.012489	-0.004828	-0.0069136	0.0089314	0.015034	-0.0058117	-0.012599	0.0048706	-0.0039001	0.0050384	-0.00078775	0.00030453	0.0022226	-0.0028713	
1628.308	6	1	0	0	255	-0.009531	0.012313	0.012494	-0.0048301	-0.0071725	0.0092658	0.015717	-0.006076	-0.011037	0.0042666	-0.0039152	0.0050578	-0.00059921	0.00023164	0.0019917	-0.002573	
1628.433	6	1	0	0	255	-0.010195	0.013171	0.012336	-0.0047689	-0.007451	0.0096255	0.016269	-0.0062894	-0.0093832	0.0036273	-0.0038591	0.0049854	-0.00045287	0.00017507	0.001796	-0.0023202	
1628.583	6	1	0	0	255	-0.010613	0.013711	0.012276	-0.0047457	-0.0075851	0.0097989	0.016309	-0.0063047	-0.0090551	0.0035005	-0.0037304	0.0048191	-0.00063608	0.00024589	0.0019271	-0.0024895	
1628.707	6	1	0	0	255	-0.010421	0.013463	0.011758	-0.0045452	-0.0073544	0.0095008	0.015244	-0.0058931	-0.010407	0.0040229	-0.0035281	0.0045578	-0.0010472	0.00040483	0.0021198	-0.0027385	
1628.933	7	1	0	0	255	-0.0097567	0.012604	0.011367	-0.0043943	-0.0072173	0.0093237	0.015566	-0.0060173	-0.010095	0.0039026	-0.0034568	0.0044657	-0.00080093	0.00030962	0.0019274	-0.0024899	
1629.057	7	1	0	0	255	-0.0098545	0.012731	0.01139	-0.0044032	-0.0071673	0.0092591	0.015645	-0.006048	-0.011196	0.004328	-0.0035353	0.004567	-0.00056423	0.00021812	0.0018128	-0.0023418	
1629.184	7	1	0	0	255	-0.0098333	0.012703	0.01135	-0.0043877	-0.0071478	0.0092339	0.015355	-0.0059358	-0.011808	0.0045646	-0.0035196	0.0045468	-0.00059466	0.00022988	0.0018346	-0.00237	
1629.334	7	1	0	0	255	-0.0094021	0.012146	0.011264	-0.0043545	-0.0070044	0.0090487	0.01523	-0.0058877	-0.011116	0.0042971	-0.0034343	0.0044367	-0.00073508	0.00028416	0.0018639	-0.0024079	
1629.458	7	1	0	0	255	-0.0097998	0.01266	0.011426	-0.004417	-0.0071724	0.0092657	0.015676	-0.00606	-0.010643	0.0041142	-0.0033493	0.0043267	-0.00085241	0.00032952	0.0019579	-0.0025293	
1629.684	7	1	0	0	255	-0.010026	0.012952	0.0098908	-0.0038235	-0.0070011	0.0090443	0.015228	-0.0058867	-0.010627	0.0041081	-0.0029201	0.0037724	-0.00078279	0.00030261	0.0018507	-0.0023908	
1629.807	7	1	0	0	255	-0.010512	0.01358	0.0099239	-0.0038363	-0.0071276	0.0092078	0.015222	-0.0058846	-0.010312	0.0039866	-0.0030064	0.0038839	-0.00083205	0.00032165	0.0018433	-0.0023813	
1629.933	7	1	0	0	255	-0.010599	0.013692	0.010647	-0.0041157	-0.0072187	0.0093255	0.015744	-0.0060863	-0.0090229	0.0034881	-0.0033262	0.004297	-0.0007819	0.00030226	0.0018151	-0.0023448	
1630.083	7	1	0	0	255	-0.010853	0.014021	0.010815	-0.0041809	-0.007341	0.0094835	0.016053	-0.0062055	-0.0072411	0.0027992	-0.0034592	0.0044688	-0.000632	0.00024432	0.0017234	-0.0022264	
1630.208	7	1	0	0	255	-0.010737	0.013871	0.010806	-0.0041773	-0.0072604	0.0093793	0.015746	-0.0060869	-0.0074991	0.002899	-0.0034569	0.0044658	-0.00058634	0.00022666	0.00175	-0.0022608	
1630.433	7	1	0	0	255	-0.010541	0.013617	0.010699	-0.0041359	-0.0071521	0.0092394	0.015505	-0.0059938	-0.0078355	0.003029	-0.0033572	0.004337	-0.00061573	0.00023803	0.0018419	-0.0023795	
1630.558	7	1	0	0	255	-0.010519	0.013588	0.010786	-0.0041698	-0.007119	0.0091967	0.015668	-0.0060568	-0.0075671	0.0029253	-0.0033202	0.0042892	-0.00071902	0.00027796	0.00189	-0.0024416	
1630.684	7	1	0	0	255	-0.010711	0.013837	0.010837	-0.0041892	-0.007275	0.0093983	0.015836	-0.0061218	-0.0068443	0.0026458	-0.0034204	0.0044187	-0.00081434	0.00031481	0.0018464	-0.0023853	
1630.833	7	1	0	0	255	-0.01091	0.014094	0.010845	-0.0041925	-0.0073112	0.0094449	0.015992	-0.0061822	-0.0064999	0.0025127	-0.0034139	0.0044102	-0.00088473	0.00034201	0.001861	-0.0024041	
1631.033	7	1	0	0	255	-0.010878	0.014053	0.010907	-0.0042166	-0.0072655	0.0093859	0.015853	-0.0061286	-0.0070945	0.0027426	-0.0033653	0.0043474	-0.00094701	0.00036609	0.0019451	-0.0025128	
1631.183	7	1	0	0	255	-0.010756	0.013896	0.010794	-0.0041728	-0.0072098	0.009314	0.015655	-0.0060519	-0.0073844	0.0028546	-0.0032761	0.0042323	-0.00096649	0.00037362	0.0020222	-0.0026124	
1631.307	7	1	0	0	255	-0.010412	0.01345	0.010555	-0.0040803	-0.00702	0.0090688	0.015239	-0.0058912	-0.0079032	0.0030552	-0.0031637	0.004087	-0.00089468	0.00034586	0.0020881	-0.0026975	
1631.434	7	1	0	0	255	-0.010039	0.012969	0.010414	-0.0040259	-0.0069178	0.0089367	0.014997	-0.0057976	-0.0081294	0.0031426	-0.00324	0.0041856	-0.00074965	0.0002898	0.002027	-0.0026186	
1631.584	7	1	0	0	255	-0.0098966	0.012785	0.010339	-0.0039967	-0.0068727	0.0088785	0.014856	-0.0057429	-0.0082526	0.0031903	-0.0033214	0.0042908	-0.00065893	0.00025473	0.0019742	-0.0025504	
1631.784	7	1	0	0	255	-0.0098512	0.012726	0.010295	-0.0039796	-0.0068308	0.0088244	0.014853	-0.0057417	-0.0079577	0.0030762	-0.0033282	0.0042995	-0.00059402	0.00022964	0.0019328	-0.0024969	
1631.934	7	1	0	0	255	-0.0098608	0.012739	0.010219	-0.0039505	-0.0068627	0.0088656	0.014789	-0.005717	-0.0079521	0.0030741	-0.0032742	0.0042298	-0.00061399	0.00023735	0.0019134	-0.0024718	
1632.058	7	1	0	0	255	-0.0099439	0.012846	0.01018	-0.0039354	-0.0068058	0.0087921	0.01481	-0.0057251	-0.0077907	0.0030117	-0.0032038	0.0041389	-0.000619	0.00023929	0.0019366	-0.0025018	
1632.185	7	1	0	0	255	-0.010053	0.012987	0.010253	-0.0039637	-0.0068375	0.0088331	0.014956	-0.0057816	-0.0074495	0.0028798	-0.0033171	0.0042852	-0.00040036	0.00015477	0.0018931	-0.0024456	
1632.335	7	1	0	0	255	-0.01002	0.012944	0.010385	-0.0040147	-0.0068754	0.008882	0.015007	-0.0058015	-0.0070188	0.0027133	-0.0034594	0.004469	-0.00030753	0.00011888	0.0017757	-0.0022939	
1632.535	7	1	0	0	255	-0.009941	0.012842	0.010404	-0.0040219	-0.0068952	0.0089075	0.014939	-0.0057752	-0.0067883	0.0026242	-0.0034655	0.0044769	-0.00032743	0.00012657	0.0017707	-0.0022875	
1632.685	7	1	0	0	255	-0.0098695	0.01275	0.01037	-0.0040089	-0.0068976	0.0089107	0.014896	-0.0057584	-0.0066212	0.0025596	-0.0034439	0.004449	-0.00024365	9.4191e-05	0.0017432	-0.0022519	
1632.809	7	1	0	0	255	-0.0098668	0.012746	0.010391	-0.004017	-0.0068967	0.0089096	0.015011	-0.0058029	-0.0066181	0.0025584	-0.0033589	0.0043392	-0.00028573	0.00011046	0.0017643	-0.0022792	
1632.934	7	1	0	0	255	-0.0099633	0.012871	0.010361	-0.0040052	-0.0069408	0.0089664	0.015099	-0.0058369	-0.0059429	0.0022974	-0.0033505	0.0043283	-0.00021351	8.2537e-05	0.0017777	-0.0022965	
1633.084	7	1	0	0	255	-0.0099653	0.012874	0.010458	-0.0040429	-0.0069712	0.0090057	0.01518	-0.0058682	-0.0058209	0.0022502	-0.0035005	0.0045222	-0.00013611	5.2618e-05	0.0016725	-0.0021606	
1633.284	7	1	0	0	255	-0.010218	0.0132	0.010736	-0.0041504	-0.0071739	0.0092677	0.015443	-0.00597	-0.0053537	0.0020696	-0.00357	0.0046119	-0.00021791	8.4239e-05	0.0016234	-0.0020973	
1633.434	7	1	0	0	255	-0.010584	0.013673	0.010944	-0.0042308	-0.0073248	0.0094625	0.015819	-0.0061152	-0.0051648	0.0019966	-0.0035307	0.0045612	-0.00036625	0.00014158	0.001685	-0.0021767	
1633.559	7	1	0	0	255	-0.010718	0.013846	0.010905	-0.0042157	-0.007294	0.0094227	0.015995	-0.0061834	-0.0051795	0.0020023	-0.0034617	0.004472	-0.00049464	0.00019121	0.0017661	-0.0022816	
1633.709	7	1	0	0	255	-0.010629	0.013731	0.010802	-0.0041757	-0.0072281	0.0093376	0.015765	-0.0060943	-0.0053801	0.0020798	-0.003393	0.0043832	-0.00054656	0.00021129	0.0018127	-0.0023418	
1633.835	7	1	0	0	255	-0.010604	0.013698	0.010874	-0.0042038	-0.0071933	0.0092927	0.015543	-0.0060085	-0.0053949	0.0020855	-0.003396	0.0043871	-0.00053357	0.00020626	0.0018073	-0.0023348	
1634.035	7	1	0	0	255	-0.010606	0.013702	0.010884	-0.0042076	-0.0072039	0.0093064	0.015583	-0.0060241	-0.0050796	0.0019637	-0.0035009	0.0045226	-0.00046792	0.00018088	0.0016992	-0.0021951	
1634.185	7	1	0	0	255	-0.01054	0.013616	0.010833	-0.0041878	-0.0071983	0.0092991	0.015715	-0.0060751	-0.0051142	0.001977	-0.0035031	0.0045255	-0.00052193	0.00020177	0.0016854	-0.0021773	
1634.310	7	1	0	0	255	-0.010581	0.013669	0.010776	-0.0041658	-0.0072192	0.0093261	0.015654	-0.0060514	-0.0057409	0.0022193	-0.0034813	0.0044973	-0.00061052	0.00023601	0.0016625	-0.0021477	
1634.460	7	1	0	0	255	-0.010525	0.013597	0.010778	-0.0041664	-0.0071909	0.0092896	0.015605	-0.0060326	-0.0059239	0.00229	-0.0033961	0.0043872	-0.00068798	0.00026596	0.0017304	-0.0022354	
1634.585	7	1	0	0	255	-0.010599	0.013692	0.010733	-0.0041492	-0.0071507	0.0092377	0.015625	-0.0060403	-0.0058612	0.0022658	-0.0033253	0.0042958	-0.00067449	0.00026074	0.0018136	-0.0023429	
1634.785	7	1	0	0	255	-0.010644	0.013751	0.010686	-0.0041309	-0.0071279	0.0092082	0.015679	-0.0060611	-0.005653	0.0021853	-0.0032661	0.0042193	-0.00072058	0.00027856	0.0018297	-0.0023637	
1634.935	7	1	0	0	255	-0.010674	0.01379	0.010717	-0.004143	-0.0071748	0.0092687	0.015691	-0.0060659	-0.0055457	0.0021438	-0.0033565	0.004336	-0.00068605	0.00026521	0.001729	-0.0022336	
1635.060	7	1	0	0	255	-0.010675	0.013791	0.010756	-0.0041581	-0.0072546	0.0093719	0.015683	-0.0060628	-0.0057416	0.0022196	-0.0034174	0.0044148	-0.00065247	0.00025223	0.0016991	-0.002195	
1635.184	7	1	0	0	255	-0.010729	0.01386	0.010761	-0.00416	-0.0072342	0.0093455	0.015666	-0.0060562	-0.0055371	0.0021405	-0.0034011	0.0043938	-0.00073341	0.00028352	0.0016857	-0.0021776	
1635.336	7	1	0	0	255	-0.010665	0.013777	0.010665	-0.0041229	-0.0071897	0.0092881	0.015544	-0.006009	-0.0055956	0.0021631	-0.0033346	0.0043078	-0.00081855	0.00031643	0.0017399	-0.0022477	
1635.536	7	1	0	0	255	-0.010698	0.013821	0.010574	-0.0040878	-0.0071734	0.0092669	0.015532	-0.0060041	-0.0056406	0.0021805	-0.0032241	0.0041651	-0.00087996	0.00034017	0.0017979	-0.0023226	
1635.686	7	1	0	0	255	-0.01076	0.0139	0.010674	-0.0041264	-0.0072208	0.0093282	0.015622	-0.0060391	-0.0056065	0.0021674	-0.0032673	0.0042209	-0.00084682	0.00032736	0.0017681	-0.0022841	
1635.811	7	1	0	0	255	-0.010838	0.014001	0.010663	-0.0041221	-0.0072623	0.0093818	0.015518	-0.0059989	-0.0055031	0.0021274	-0.0033533	0.004332	-0.00081921	0.00031669	0.0017044	-0.0022019	
1635.934	7	1	0	0	255	-0.010862	0.014033	0.010634	-0.0041109	-0.0072789	0.0094033	0.015537	-0.0060062	-0.0055019	0.0021269	-0.0033517	0.0043299	-0.00084442	0.00032643	0.0017112	-0.0022106	
1636.084	7	1	0	0	255	-0.010776	0.013921	0.010568	-0.0040855	-0.0072221	0.0093299	0.015623	-0.0060396	-0.0056677	0.002191	-0.0032898	0.00425	-0.00095101	0.00036764	0.0017608	-0.0022747	
1636.285	7	1	0	0	255	-0.010619	0.013718	0.010445	-0.0040379	-0.0071615	0.0092516	0.015456	-0.0059748	-0.0065721	0.0025406	-0.0031526	0.0040727	-0.0011944	0.00046171	0.0018912	-0.0024431	
1636.435	8	1	0	0	255	-0.010406	0.013442	0.010254	-0.0039639	-0.0070608	0.0091215	0.015008	-0.0058016	-0.0083165	0.003215	-0.0029003	0.0037468	-0.0014607	0.00056468	0.0021038	-0.0027178	
1636.560	8	1	0	0	255	-0.0098205	0.012687	0.010067	-0.0038915	-0.00684	0.0088362	0.014557	-0.0056272	-0.010159	0.0039272	-0.0028484	0.0036797	-0.0014712	0.00056873	0.0021503	-0.0027779	
1636.710	8	1	0	0	255	-0.0094251	0.012176	0.0099437	-0.003844	-0.0067044	0.0086611	0.014395	-0.0055649	-0.010699	0.0041359	-0.0028763	0.0037157	-0.0014494	0.00056029	0.0020953	-0.0027068	
1636.835	8	1	0	0	255	-0.0094496	0.012207	0.0099572	-0.0038492	-0.0067284	0.0086921	0.014462	-0.0055908	-0.010464	0.004045	-0.0028386	0.0036671	-0.0014769	0.00057094	0.0020534	-0.0026527	
1637.035	8	1	0	0	255	-0.0094619	0.012223	0.0099412	-0.003843	-0.0067199	0.0086811	0.014508	-0.0056085	-0.010726	0.0041464	-0.0027909	0.0036055	-0.0016463	0.0006364	0.0020744	-0.0026799	
1637.185	8	1	0	0	255	-0.0095067	0.012281	0.0098508	-0.0038081	-0.0067183	0.0086791	0.014622	-0.0056524	-0.01063	0.0041095	-0.0027179	0.0035112	-0.0017576	0.00067946	0.0021407	-0.0027654	
1637.310	8	1	0	0	255	-0.0095743	0.012369	0.0098677	-0.0038146	-0.0067639	0.008738	0.014726	-0.0056926	-0.01026	0.0039663	-0.0026316	0.0033996	-0.001859	0.00071863	0.0021905	-0.0028298	
1637.460	8	1	0	0	255	-0.0097624	0.012612	0.0099763	-0.0038566	-0.0068469	0.0088451	0.014897	-0.005759	-0.0099483	0.0038458	-0.0027336	0.0035314	-0.0018502	0.00071525	0.002119	-0.0027374	
1637.584	8	1	0	0	255	-0.0098222	0.012689	0.010054	-0.0038868	-0.0069443	0.0089711	0.015055	-0.00582	-0.010013	0.0038709	-0.0028337	0.0036607	-0.0019138	0.00073985	0.0020515	-0.0026502	
1637.786	8	1	0	0	255	-0.00984	0.012712	0.010033	-0.0038784	-0.0069714	0.009006	0.014859	-0.0057443	-0.01013	0.0039162	-0.0028097	0.0036297	-0.0020089	0.00077661	0.0020185	-0.0026075	
1637.936	8	1	0	0	255	-0.0095949	0.012395	0.010027	-0.0038762	-0.0068727	0.0088785	0.014708	-0.0056857	-0.010275	0.003972	-0.0027831	0.0035953	-0.0020767	0.00080281	0.0020758	-0.0026816	
1638.059	8	1	0	0	255	-0.0096701	0.012492	0.0099469	-0.0038453	-0.0068304	0.0088238	0.014635	-0.0056577	-0.010606	0.0040999	-0.0027439	0.0035447	-0.0022123	0.00085521	0.0021603	-0.0027908	
1638.209	8	1	1	0	255	-0.0098245	0.012692	0.0098998	-0.003827	-0.0068301	0.0088235	0.014802	-0.0057219	-0.010516	0.0040654	-0.0026635	0.0034408	-0.0023393	0.00090432	0.0021871	-0.0028254	
1638.335	8	1	0	0	255	-0.01003	0.012958	0.010132	-0.0039166	-0.006934	0.0089577	0.015054	-0.0058194	-0.010001	0.0038662	-0.0027294	0.0035259	-0.0025288	0.00097757	0.0021303	-0.002752	
1638.535	8	1	0	0	255	-0.010218	0.0132	0.010253	-0.0039634	-0.0070777	0.0091434	0.015209	-0.0058796	-0.0095962	0.0037097	-0.0028464	0.0036771	-0.0025514	0.0009863	0.002047	-0.0026445	
1638.685	8	1	0	0	255	-0.010175	0.013144	0.010269	-0.0039698	-0.0071086	0.0091833	0.015336	-0.0059286	-0.0092558	0.0035781	-0.0028698	0.0037073	-0.0025775	0.00099641	0.0020078	-0.0025938	
1638.836	8	1	0	0	255	-0.010199	0.013176	0.010325	-0.0039913	-0.0071154	0.0091921	0.015397	-0.0059522	-0.0091887	0.0035522	-0.0028342	0.0036613	-0.0027573	0.0010659	0.0020541	-0.0026536	
1638.960	8	1	0	0	255	-0.010297	0.013302	0.010242	-0.0039591	-0.0071037	0.0091769	0.015197	-0.0058748	-0.0094553	0.0036552	-0.0027591	0.0035643	-0.0029059	0.0011233	0.0021338	-0.0027565	
1639.085	8	1	0	0	255	-0.010234	0.013221	0.010055	-0.0038869	-0.0070423	0.0090976	0.015129	-0.0058485	-0.0095345	0.0036858	-0.0026742	0.0034546	-0.0028444	0.0010996	0.0021633	-0.0027947	
1639.286	8	1	0	0	255	-0.010191	0.013166	0.010079	-0.0038961	-0.0070439	0.0090996	0.01506	-0.0058219	-0.0093222	0.0036038	-0.0027815	0.0035933	-0.0026549	0.0010263	0.00207	-0.0026742	
1639.436	8	1	0	0	255	-0.01013	0.013087	0.010026	-0.0038756	-0.0070347	0.0090877	0.014921	-0.0057679	-0.0093704	0.0036224	-0.0028513	0.0036835	-0.0025723	0.00099437	0.002026	-0.0026173	
1639.561	8	1	0	0	255	-0.010031	0.012958	0.0099533	-0.0038477	-0.0069889	0.0090286	0.01486	-0.0057447	-0.0099325	0.0038397	-0.002848	0.0036792	-0.0025823	0.00099827	0.0020284	-0.0026204	
1639.711	8	1	0	0	255	-0.0099973	0.012915	0.009886	-0.0038217	-0.0069602	0.0089915	0.014747	-0.0057008	-0.010318	0.0039887	-0.0027939	0.0036094	-0.0026846	0.0010378	0.0020712	-0.0026757	
1639.836	8	1	0	0	255	-0.0099423	0.012844	0.0098162	-0.0037947	-0.0068807	0.0088888	0.014665	-0.0056692	-0.010511	0.0040632	-0.0027241	0.0035191	-0.0028274	0.001093	0.0021362	-0.0027597	
1640.036	8	1	0	0	255	-0.0098998	0.012789	0.0098188	-0.0037957	-0.0069051	0.0089203	0.014658	-0.0056665	-0.010417	0.004027	-0.0027804	0.0035918	-0.0028074	0.0010853	0.0021142	-0.0027312	
1640.186	8	1	0	0	255	-0.0098315	0.012701	0.0098217	-0.0037968	-0.0069433	0.0089698	0.014665	-0.0056693	-0.010602	0.0040986	-0.0028066	0.0036257	-0.002724	0.001053	0.0020864	-0.0026953	
1640.311	8	1	0	0	255	-0.0098424	0.012715	0.00983	-0.0038	-0.0069331	0.0089565	0.014594	-0.0056419	-0.010973	0.0042421	-0.0028216	0.0036451	-0.0027975	0.0010815	0.0020848	-0.0026932	
1640.461	8	1	0	0	255	-0.0097636	0.012613	0.0097745	-0.0037786	-0.0068975	0.0089105	0.014551	-0.0056249	-0.011085	0.0042852	-0.0027639	0.0035705	-0.0028739	0.001111	0.0021211	-0.0027401	
1640.661	8	1	0	0	255	-0.0096792	0.012504	0.009639	-0.0037262	-0.0068284	0.0088213	0.014448	-0.0055854	-0.011474	0.0044357	-0.0026944	0.0034808	-0.0029647	0.0011461	0.002175	-0.0028098	
1640.787	8	1	0	0	255	-0.0097141	0.012549	0.0096879	-0.0037451	-0.0068776	0.0088848	0.014359	-0.0055508	-0.011197	0.0043283	-0.0027797	0.003591	-0.0028612	0.0011061	0.0020985	-0.0027109	
1640.937	8	1	0	0	255	-0.0096513	0.012468	0.0096957	-0.0037481	-0.0068573	0.0088586	0.014494	-0.0056032	-0.011101	0.0042914	-0.002831	0.0036572	-0.0029186	0.0011283	0.0020695	-0.0026735	
1641.086	8	1	0	0	255	-0.0096852	0.012512	0.0096825	-0.003743	-0.006849	0.0088479	0.014375	-0.005557	-0.011152	0.004311	-0.0028203	0.0036435	-0.0029774	0.001151	0.0020686	-0.0026723	
1641.210	8	1	0	0	255	-0.0096938	0.012523	0.0096967	-0.0037485	-0.0068085	0.0087956	0.014248	-0.0055079	-0.011342	0.0043845	-0.0027552	0.0035594	-0.0030632	0.0011842	0.0020616	-0.0026633	
1641.412	8	1	0	0	255	-0.0094595	0.01222	0.0095318	-0.0036848	-0.0067051	0.008662	0.014016	-0.0054184	-0.011956	0.0046221	-0.0026689	0.0034478	-0.0030852	0.0011927	0.0021273	-0.0027482	
1641.536	8	1	0	0	255	-0.0091539	0.011826	0.0093297	-0.0036066	-0.0066052	0.008533	0.013842	-0.0053509	-0.012174	0.0047062	-0.0027755	0.0035856	-0.0028139	0.0010878	0.0020263	-0.0026177	
1641.686	8	1	0	0	255	-0.0091751	0.011853	0.0093619	-0.0036191	-0.006603	0.0085301	0.013983	-0.0054055	-0.012212	0.0047211	-0.0028485	0.0036798	-0.0027516	0.0010637	0.0019383	-0.0025039	
1641.811	8	1	0	0	255	-0.0093394	0.012065	0.009639	-0.0037262	-0.0067883	0.0087695	0.014251	-0.0055092	-0.0117	0.0045231	-0.002895	0.0037399	-0.0029372	0.0011354	0.0019367	-0.0025019	
1641.961	8	1	0	0	255	-0.0096317	0.012443	0.0098592	-0.0038113	-0.0068788	0.0088864	0.014503	-0.0056066	-0.011396	0.0044054	-0.0029013	0.0037481	-0.0031784	0.0012287	0.0019655	-0.0025391	
1642.161	8	1	0	0	255	-0.0097837	0.012639	0.0098725	-0.0038165	-0.0068818	0.0088903	0.014694	-0.0056803	-0.011483	0.0044389	-0.0028219	0.0036455	-0.0034389	0.0013294	0.0020149	-0.0026029	
1642.311	8	1	0	0	255	-0.0098699	0.01275	0.010035	-0.0038793	-0.0069925	0.0090333	0.014749	-0.0057017	-0.011538	0.0044603	-0.0029532	0.0038151	-0.0033362	0.0012897	0.0019201	-0.0024805	
1642.437	8	1	0	0	255	-0.0099367	0.012837	0.010066	-0.0038914	-0.0070459	0.0091022	0.014643	-0.0056605	-0.011208	0.0043329	-0.0030428	0.0039308	-0.0032068	0.0012397	0.0017971	-0.0023216	
1642.586	8	1	0	0	255	-0.0099187	0.012813	0.0099959	-0.0038642	-0.0070315	0.0090837	0.014699	-0.0056823	-0.011177	0.0043208	-0.0030417	0.0039295	-0.0031438	0.0012153	0.0017678	-0.0022838	
1642.712	8	1	0	0	255	-0.0097869	0.012643	0.0099447	-0.0038444	-0.0070078	0.009053	0.014649	-0.0056629	-0.011158	0.0043134	-0.003001	0.0038768	-0.0032534	0.0012577	0.001779	-0.0022982	
1642.912	8	1	0	0	255	-0.0097695	0.012621	0.0098866	-0.0038219	-0.006907	0.0089229	0.014511	-0.0056096	-0.011572	0.0044734	-0.0029213	0.0037738	-0.0033933	0.0013118	0.0018322	-0.002367	
1643.062	8	1	0	0	255	-0.0097054	0.012538	0.0097294	-0.0037612	-0.0068326	0.0088267	0.014365	-0.005553	-0.012024	0.004648	-0.0028152	0.0036368	-0.003471	0.0013418	0.0019044	-0.0024602	
1643.187	8	1	0	0	255	-0.0095601	0.01235	0.0097528	-0.0037702	-0.0068243	0.008816	0.014399	-0.0055662	-0.011996	0.0046375	-0.0028899	0.0037333	-0.0033342	0.0012889	0.0018655	-0.0024099	
1643.337	8	1	0	0	255	-0.0095516	0.012339	0.0098311	-0.0038005	-0.0069179	0.0089369	0.014447	-0.0055847	-0.011579	0.0044762	-0.0030083	0.0038863	-0.003111	0.0012026	0.0017236	-0.0022266	
1643.462	8	1	0	0	255	-0.0095982	0.012399	0.009781	-0.0037811	-0.0069824	0.0090202	0.014524	-0.0056146	-0.011445	0.0044245	-0.0030066	0.003884	-0.0030465	0.0011777	0.0016494	-0.0021307	
1643.662	8	1	0	0	255	-0.0095936	0.012393	0.0096995	-0.0037496	-0.0069641	0.0089966	0.014475	-0.0055956	-0.011699	0.0045226	-0.0029711	0.0038382	-0.0031704	0.0012256	0.0016559	-0.0021392	
1643.812	8	1	0	0	255	-0.0095665	0.012359	0.0096202	-0.003719	-0.0069041	0.0089191	0.014422	-0.0055751	-0.011712	0.0045276	-0.0029044	0.0037521	-0.0032894	0.0012716	0.0016967	-0.0021919	
1643.938	9	1	0	0	255	-0.0095467	0.012333	0.0096104	-0.0037152	-0.0068272	0.0088198	0.014328	-0.0055388	-0.011892	0.0045971	-0.0028037	0.003622	-0.0033825	0.0013076	0.001782	-0.0023021	
1644.087	9	1	0	0	255	-0.00949	0.01226	0.0095114	-0.0036769	-0.0067752	0.0087526	0.014281	-0.0055207	-0.011983	0.0046323	-0.0027177	0.0035109	-0.003461	0.0013379	0.0018913	-0.0024433	
1644.211	9	1	0	0	255	-0.0094502	0.012208	0.0094912	-0.0036691	-0.0067366	0.0087027	0.014264	-0.005514	-0.012052	0.004659	-0.0026624	0.0034395	-0.003487	0.001348	0.0019407	-0.002507	
1644.413	9	1	0	0	255	-0.0094468	0.012204	0.0095488	-0.0036913	-0.0067735	0.0087504	0.014271	-0.0055167	-0.012202	0.0047169	-0.0028156	0.0036373	-0.003357	0.0012978	0.0018295	-0.0023634	
1644.563	9	1	0	0	255	-0.009515	0.012292	0.0095968	-0.0037099	-0.0068489	0.0088477	0.014266	-0.0055151	-0.012078	0.004669	-0.0028701	0.0037078	-0.0032742	0.0012657	0.001763	-0.0022776	
1644.687	9	1	0	0	255	-0.0094995	0.012272	0.009586	-0.0037057	-0.0068574	0.0088588	0.014188	-0.0054848	-0.01197	0.0046273	-0.0028247	0.0036491	-0.0032654	0.0012623	0.0017365	-0.0022433	
1644.838	9	1	0	0	255	-0.0094142	0.012162	0.0095474	-0.0036908	-0.0068113	0.0087993	0.014204	-0.0054909	-0.011934	0.0046136	-0.0027924	0.0036074	-0.0033545	0.0012968	0.0017759	-0.0022942	
1644.962	9	1	0	0	255	-0.0094817	0.012249	0.009463	-0.0036582	-0.0067634	0.0087373	0.014167	-0.0054766	-0.011998	0.0046382	-0.0027074	0.0034975	-0.0034776	0.0013444	0.0018761	-0.0024237	
1645.162	9	1	0	0	255	-0.0095074	0.012282	0.0093572	-0.0036173	-0.0067587	0.0087312	0.014177	-0.0054805	-0.012162	0.0047016	-0.0026096	0.0033712	-0.0035444	0.0013702	0.0019605	-0.0025327	
1645.312	9	1	0	0	255	-0.0094149	0.012163	0.0093289	-0.0036063	-0.0066896	0.0086419	0.014219	-0.0054969	-0.012455	0.0048148	-0.0025018	0.003232	-0.003603	0.0013928	0.002066	-0.002669	
1645.438	9	1	0	0	255	-0.0093705	0.012105	0.0094631	-0.0036582	-0.0067327	0.0086977	0.014263	-0.0055139	-0.01222	0.0047239	-0.0026191	0.0033835	-0.0034447	0.0013316	0.0019754	-0.002552	
1645.587	9	1	0	0	255	-0.0093824	0.012121	0.0094988	-0.003672	-0.0068128	0.0088011	0.014219	-0.0054967	-0.012209	0.0047196	-0.0027302	0.003527	-0.0033327	0.0012884	0.0018864	-0.0024369	
1645.713	9	1	0	0	255	-0.0094786	0.012245	0.0094985	-0.0036719	-0.0068295	0.0088227	0.014257	-0.0055115	-0.011925	0.0046099	-0.002717	0.0035099	-0.0033748	0.0013046	0.0018412	-0.0023786	
1645.913	9	1	0	0	255	-0.0094828	0.01225	0.0094634	-0.0036583	-0.0067849	0.0087651	0.014337	-0.0055422	-0.011788	0.0045571	-0.0026665	0.0034447	-0.0034611	0.001338	0.0018996	-0.002454	
1646.063	9	1	0	0	255	-0.0094931	0.012264	0.0094266	-0.0036441	-0.0067416	0.0087091	0.014301	-0.0055282	-0.012181	0.0047089	-0.0026071	0.003368	-0.0035618	0.0013769	0.0019926	-0.0025742	
1646.188	9	1	0	0	255	-0.0095042	0.012278	0.0094277	-0.0036445	-0.0067028	0.0086591	0.014162	-0.0054747	-0.012064	0.0046637	-0.0025322	0.0032712	-0.0036708	0.001419	0.0020341	-0.0026278	
1646.338	9	1	0	0	255	-0.0094391	0.012194	0.0093434	-0.0036119	-0.0066553	0.0085977	0.014173	-0.0054791	-0.011836	0.0045754	-0.0024553	0.0031718	-0.0036391	0.0014068	0.0021025	-0.0027161	
1646.463	9	1	0	0	255	-0.0094183	0.012167	0.0094424	-0.0036502	-0.0066865	0.008638	0.014337	-0.0055424	-0.012188	0.0047116	-0.00256	0.0033072	-0.0035022	0.0013539	0.0020235	-0.0026141	
1646.688	9	1	0	0	255	-0.0094403	0.012196	0.0094957	-0.0036708	-0.0067459	0.0087147	0.014315	-0.0055339	-0.011745	0.0045405	-0.0025882	0.0033436	-0.0034386	0.0013293	0.0019767	-0.0025537	
1646.813	9	1	0	0	255	-0.009457	0.012217	0.0094885	-0.003668	-0.0067778	0.0087559	0.014299	-0.0055278	-0.011572	0.0044736	-0.0026072	0.0033682	-0.0035212	0.0013612	0.0019974	-0.0025803	
1646.939	9	1	0	0	255	-0.0094712	0.012235	0.009467	-0.0036597	-0.0067414	0.0087088	0.014225	-0.0054992	-0.012172	0.0047053	-0.0025734	0.0033244	-0.0036157	0.0013977	0.0020737	-0.0026789	
1647.088	9	1	0	0	255	-0.0094528	0.012212	0.0093961	-0.0036323	-0.0066801	0.0086297	0.014194	-0.0054872	-0.012614	0.0048764	-0.0025027	0.0032331	-0.0037129	0.0014353	0.002134	-0.0027568	
1647.212	9	1	0	0	255	-0.0093835	0.012122	0.00937	-0.0036222	-0.0066145	0.008545	0.014185	-0.0054837	-0.012435	0.0048069	-0.0024401	0.0031522	-0.0037582	0.0014528	0.0021639	-0.0027955	
1647.414	9	1	0	0	255	-0.0093738	0.01211	0.0093877	-0.0036291	-0.0066292	0.008564	0.014191	-0.005486	-0.012133	0.0046902	-0.0025222	0.0032584	-0.0036331	0.0014045	0.0021131	-0.0027298	
1647.564	9	1	0	0	255	-0.0093957	0.012138	0.009456	-0.0036555	-0.0066705	0.0086173	0.014243	-0.0055061	-0.012454	0.0048143	-0.0025438	0.0032862	-0.0035596	0.0013761	0.002077	-0.0026832	
1647.688	9	1	0	0	255	-0.0094179	0.012166	0.0094273	-0.0036444	-0.0066446	0.0085839	0.014185	-0.0054838	-0.012288	0.0047503	-0.0025115	0.0032445	-0.0036134	0.0013969	0.0021016	-0.0027149	
1647.839	9	1	0	0	255	-0.0094294	0.012181	0.0093331	-0.003608	-0.0066246	0.008558	0.014151	-0.0054705	-0.01259	0.0048668	-0.0024417	0.0031543	-0.0036722	0.0014196	0.002164	-0.0027956	
1647.963	9	1	0	0	255	-0.0093982	0.012141	0.0092918	-0.003592	-0.0065819	0.0085028	0.014089	-0.0054466	-0.012775	0.0049386	-0.0023611	0.0030502	-0.0037728	0.0014585	0.0022658	-0.0029271	
1648.163	9	1	0	0	255	-0.0093963	0.012139	0.0093611	-0.0036188	-0.0066024	0.0085293	0.014141	-0.0054664	-0.012651	0.0048904	-0.0024358	0.0031466	-0.003635	0.0014052	0.0022273	-0.0028773	
1648.313	9	1	0	0	255	-0.0094067	0.012152	0.0093492	-0.0036142	-0.0067119	0.0086708	0.014138	-0.0054655	-0.01251	0.0048362	-0.0025341	0.0032737	-0.0035121	0.0013577	0.0021259	-0.0027464	
1648.438	9	1	0	0	255	-0.0093913	0.012132	0.0093991	-0.0036335	-0.0067209	0.0086825	0.014126	-0.0054608	-0.012397	0.0047924	-0.0025476	0.0032912	-0.0035292	0.0013643	0.0020895	-0.0026993	
1648.588	9	1	0	0	255	-0.0093096	0.012027	0.0093457	-0.0036128	-0.0067303	0.0086946	0.014143	-0.0054675	-0.012527	0.0048428	-0.0024942	0.0032222	-0.0035348	0.0013665	0.0021465	-0.0027729	
1648.714	9	1	0	0	255	-0.0093488	0.012077	0.0093038	-0.0035966	-0.0066778	0.0086268	0.0142	-0.0054893	-0.012886	0.0049814	-0.0024192	0.0031253	-0.00363	0.0014033	0.0022015	-0.002844	
1648.914	9	1	0	0	255	-0.0093266	0.012049	0.0092563	-0.0035783	-0.0066106	0.0085399	0.014119	-0.0054581	-0.013054	0.0050463	-0.0023312	0.0030116	-0.0037357	0.0014442	0.002272	-0.0029351	
1649.064	9	1	0	0	255	-0.009408	0.012154	0.0093418	-0.0036113	-0.0066487	0.0085891	0.014133	-0.0054636	-0.012582	0.004864	-0.0024277	0.0031362	-0.0036065	0.0013942	0.0021896	-0.0028287	
1649.189	9	1	0	0	255	-0.0093995	0.012143	0.0094069	-0.0036365	-0.0067244	0.0086869	0.014213	-0.0054946	-0.012137	0.0046921	-0.0025474	0.0032908	-0.0034932	0.0013504	0.0020732	-0.0026783	
1649.339	9	1	0	0	255	-0.0093771	0.012114	0.0094144	-0.0036394	-0.0067481	0.0087175	0.014266	-0.0055149	-0.01252	0.0048401	-0.002569	0.0033187	-0.0034163	0.0013207	0.002019	-0.0026083	
1649.464	9	1	0	0	255	-0.00942	0.012169	0.0093533	-0.0036158	-0.0066893	0.0086415	0.014228	-0.0055003	-0.01268	0.0049016	-0.002527	0.0032645	-0.0034581	0.0013368	0.0020514	-0.0026501	
1649.689	9	1	0	0	255	-0.0094037	0.012148	0.0092958	-0.0035935	-0.0066738	0.0086216	0.014255	-0.0055108	-0.012571	0.0048595	-0.0024426	0.0031555	-0.003593	0.001389	0.0021192	-0.0027377	
1649.814	9	1	0	0	255	-0.0093657	0.012099	0.0092857	-0.0035896	-0.0066098	0.0085388	0.014174	-0.0054795	-0.012796	0.0049467	-0.0023525	0.003039	-0.0036906	0.0014267	0.0021854	-0.0028233	
1649.940	9	1	0	0	255	-0.0093267	0.012049	0.0092179	-0.0035634	-0.0065654	0.0084815	0.014135	-0.0054643	-0.012948	0.0050052	-0.0022785	0.0029435	-0.0037956	0.0014673	0.0022691	-0.0029313	
1650.089	9	1	0	0	255	-0.0092862	0.011996	0.0092174	-0.0035632	-0.0065983	0.008524	0.014105	-0.0054526	-0.012566	0.0048575	-0.0023328	0.0030136	-0.0037427	0.0014468	0.0022628	-0.0029232	
1650.288	9	1	0	0	255	-0.0093252	0.012047	0.0092819	-0.0035882	-0.0066981	0.008653	0.014179	-0.0054814	-0.012411	0.0047977	-0.0024849	0.0032101	-0.0036227	0.0014005	0.0021335	-0.0027561	
1650.439	9	1	0	0	255	-0.0093197	0.01204	0.0093107	-0.0035993	-0.0067303	0.0086945	0.014191	-0.0054859	-0.012523	0.0048412	-0.0025363	0.0032765	-0.0035606	0.0013764	0.0020797	-0.0026866	
1650.565	9	1	0	0	255	-0.0093454	0.012073	0.0093212	-0.0036034	-0.0067303	0.0086946	0.01422	-0.005497	-0.012667	0.0048966	-0.002492	0.0032192	-0.0036187	0.0013989	0.0021082	-0.0027235	
1650.690	9	1	0	0	255	-0.0093545	0.012085	0.0092401	-0.003572	-0.0066884	0.0086404	0.01414	-0.005466	-0.012435	0.0048069	-0.0024112	0.003115	-0.0037034	0.0014316	0.0021362	-0.0027596	
1650.840	9	1	0	0	255	-0.0093009	0.012015	0.0091775	-0.0035478	-0.0066892	0.0086414	0.014122	-0.0054591	-0.012777	0.0049393	-0.0023376	0.0030198	-0.0038084	0.0014722	0.0022086	-0.0028532	
1651.039	9	1	0	0	255	-0.0093086	0.012025	0.009177	-0.0035476	-0.0066492	0.0085898	0.014073	-0.0054402	-0.013152	0.0050843	-0.0022723	0.0029355	-0.0038922	0.0015046	0.0022964	-0.0029666	
1651.190	9	1	0	0	255	-0.0092818	0.011991	0.0091351	-0.0035314	-0.0065795	0.0084997	0.014133	-0.0054635	-0.01304	0.005041	-0.0022043	0.0028476	-0.0039085	0.0015109	0.0023309	-0.0030112	
1651.314	9	1	0	0	255	-0.0093042	0.01202	0.0092179	-0.0035634	-0.0066461	0.0085858	0.014121	-0.0054589	-0.012719	0.0049167	-0.0023253	0.003004	-0.0037355	0.0014441	0.0022141	-0.0028602	
1651.439	10	1	0	0	255	-0.0093875	0.012127	0.0092881	-0.0035906	-0.0067157	0.0086758	0.014132	-0.0054631	-0.012707	0.0049121	-0.0024169	0.0031223	-0.0036688	0.0014183	0.0021609	-0.0027916	
1651.589	10	1	0	0	255	-0.0093398	0.012066	0.0092671	-0.0035824	-0.0067467	0.0087158	0.014216	-0.0054956	-0.012691	0.0049061	-0.0024123	0.0031163	-0.0037044	0.001432	0.0021638	-0.0027953	
1651.790	10	1	0	0	255	-0.0093364	0.012061	0.0092247	-0.0035661	-0.0067541	0.0087253	0.014172	-0.0054787	-0.012709	0.0049131	-0.0023766	0.0030702	-0.0037723	0.0014583	0.0022143	-0.0028605	
1651.941	10	1	0	0	255	-0.0093477	0.012076	0.0091768	-0.0035475	-0.0066682	0.0086144	0.01416	-0.0054738	-0.012868	0.0049746	-0.0022935	0.0029629	-0.0038826	0.0015009	0.0022837	-0.0029502	
1652.065	10	1	0	0	255	-0.0092857	0.011996	0.0091356	-0.0035316	-0.0066061	0.008534	0.014075	-0.005441	-0.013095	0.0050621	-0.0022127	0.0028585	-0.0039452	0.0015251	0.0023575	-0.0030455	
1652.190	10	1	0	0	255	-0.0093332	0.012057	0.0091064	-0.0035203	-0.0065677	0.0084845	0.014017	-0.0054185	-0.01299	0.0050217	-0.0021578	0.0027876	-0.0039448	0.001525	0.0024082	-0.003111	
1652.340	10	1	0	0	255	-0.0093308	0.012054	0.0091938	-0.0035541	-0.0066057	0.0085336	0.01397	-0.0054005	-0.012978	0.0050172	-0.0022974	0.002968	-0.0038049	0.0014709	0.0023206	-0.0029979	
1652.540	10	1	0	0	255	-0.0093485	0.012077	0.0092326	-0.0035691	-0.0066488	0.0085893	0.014123	-0.0054597	-0.013154	0.0050852	-0.002388	0.0030849	-0.0037953	0.0014672	0.0022589	-0.0029182	
1652.690	10	1	0	0	255	-0.00937	0.012105	0.0092012	-0.003557	-0.0066948	0.0086487	0.014202	-0.0054903	-0.012827	0.0049586	-0.0023786	0.0030728	-0.0038389	0.001484	0.0022554	-0.0029136	
1652.815	10	1	0	0	255	-0.0093088	0.012026	0.0092368	-0.0035707	-0.0066815	0.0086315	0.014155	-0.005472	-0.012599	0.0048704	-0.0023203	0.0029974	-0.003912	0.0015123	0.0022696	-0.002932	
1652.941	10	1	0	0	255	-0.0093177	0.012037	0.0092174	-0.0035632	-0.006667	0.0086128	0.014091	-0.0054473	-0.012751	0.0049292	-0.0022652	0.0029263	-0.0039839	0.0015401	0.0023489	-0.0030345	
1653.091	10	1	0	0	255	-0.0093206	0.012041	0.0091287	-0.0035289	-0.0065929	0.008517	0.014071	-0.0054394	-0.013077	0.0050552	-0.0021805	0.0028169	-0.004001	0.0015467	0.0024083	-0.0031111	
1653.291	10	1	0	0	255	-0.0092763	0.011984	0.0091668	-0.0035437	-0.0065407	0.0084497	0.014123	-0.0054595	-0.013304	0.0051429	-0.0021558	0.0027849	-0.0039852	0.0015406	0.0024316	-0.0031412	
1653.440	10	1	0	0	255	-0.00931	0.012027	0.009196	-0.003555	-0.0065836	0.008505	0.014119	-0.0054582	-0.013012	0.00503	-0.0022614	0.0029213	-0.0039353	0.0015213	0.0023571	-0.003045	
1653.564	10	1	0	0	255	-0.0093153	0.012034	0.0091891	-0.0035523	-0.006679	0.0086283	0.014208	-0.0054926	-0.012752	0.0049297	-0.0022864	0.0029537	-0.0038956	0.001506	0.0023381	-0.0030204	
1653.715	10	1	0	0	255	-0.0093261	0.012048	0.0091829	-0.0035499	-0.0066912	0.008644	0.014258	-0.0055116	-0.012851	0.0049677	-0.0022647	0.0029256	-0.0039581	0.0015301	0.0023535	-0.0030403	
1653.839	10	1	0	0	255	-0.0093385	0.012064	0.0091725	-0.0035459	-0.0066056	0.0085335	0.014132	-0.0054632	-0.01289	0.0049831	-0.0022113	0.0028567	-0.004075	0.0015753	0.002418	-0.0031237	
1654.039	10	1	0	0	255	-0.0093043	0.01202	0.009152	-0.0035379	-0.0065897	0.0085129	0.01412	-0.0054585	-0.013169	0.005091	-0.0021372	0.0027609	-0.0041657	0.0016104	0.0024741	-0.0031962	
1654.189	10	1	0	0	255	-0.0092976	0.012011	0.0091494	-0.003537	-0.0066009	0.0085273	0.014221	-0.0054973	-0.013003	0.0050266	-0.0021206	0.0027395	-0.0041189	0.0015923	0.0025081	-0.0032401	
1654.315	10	1	0	0	255	-0.009361	0.012093	0.0091339	-0.003531	-0.0066465	0.0085863	0.014218	-0.0054964	-0.013034	0.0050385	-0.0022178	0.0028651	-0.0039949	0.0015444	0.0024104	-0.0031138	
1654.464	10	1	0	0	255	-0.0093405	0.012067	0.0090874	-0.003513	-0.0066343	0.0085706	0.014128	-0.0054617	-0.013171	0.0050918	-0.0022477	0.0029036	-0.0039923	0.0015433	0.0024179	-0.0031236	
1654.590	10	1	0	0	255	-0.0093182	0.012038	0.0091745	-0.0035466	-0.0066312	0.0085665	0.01404	-0.0054276	-0.013316	0.0051478	-0.0022097	0.0028546	-0.0040412	0.0015622	0.0024242	-0.0031317	
1654.790	10	1	0	0	255	-0.0093724	0.012108	0.009145	-0.0035352	-0.0066102	0.0085394	0.01409	-0.0054469	-0.013641	0.0052732	-0.0021706	0.0028041	-0.0041016	0.0015856	0.0024429	-0.0031558	
1654.940	10	1	0	0	255	-0.0093361	0.012061	0.0091077	-0.0035208	-0.0065472	0.0084581	0.01407	-0.0054392	-0.013583	0.005251	-0.0021068	0.0027217	-0.0041617	0.0016088	0.0025104	-0.0032431	
1655.065	10	1	0	0	255	-0.009356	0.012087	0.0091045	-0.0035196	-0.0065577	0.0084715	0.014122	-0.0054591	-0.013083	0.0050577	-0.0021321	0.0027544	-0.0041175	0.0015917	0.0024938	-0.0032216	
1655.215	10	1	0	0	255	-0.0093416	0.012068	0.0091125	-0.0035227	-0.0066157	0.0085465	0.014151	-0.0054703	-0.013008	0.0050286	-0.0022321	0.0028835	-0.0040107	0.0015504	0.0024357	-0.0031465	
1655.340	10	1	0	0	255	-0.0094104	0.012157	0.0091643	-0.0035427	-0.0065892	0.0085122	0.01411	-0.0054546	-0.013078	0.0050556	-0.0022558	0.0029141	-0.0039833	0.0015399	0.002405	-0.0031069	
1655.540	10	1	0	0	255	-0.0093354	0.01206	0.0091359	-0.0035317	-0.0065895	0.0085127	0.014214	-0.0054946	-0.013125	0.005074	-0.0022418	0.002896	-0.004014	0.0015517	0.0024044	-0.0031061	
1655.690	10	1	0	0	255	-0.0092486	0.011948	0.009088	-0.0035132	-0.0065799	0.0085003	0.014119	-0.0054583	-0.013182	0.0050958	-0.0021592	0.0027894	-0.0041381	0.0015997	0.0024649	-0.0031844	
1655.816	10	1	0	0	255	-0.0092946	0.012007	0.0089955	-0.0034774	-0.006562	0.0084772	0.014063	-0.0054364	-0.013392	0.0051772	-0.0020974	0.0027095	-0.0041982	0.0016229	0.0025177	-0.0032525	
1655.966	10	1	0	0	255	-0.0093216	0.012042	0.0091029	-0.003519	-0.0065935	0.0085179	0.014076	-0.0054415	-0.01292	0.0049947	-0.0021887	0.0028275	-0.0039996	0.0015462	0.0024482	-0.0031627	
1656.091	10	1	0	0	255	-0.0093061	0.012022	0.0091846	-0.0035506	-0.0067159	0.008676	0.01415	-0.00547	-0.012816	0.0049544	-0.0023049	0.0029776	-0.0038706	0.0014963	0.0023432	-0.0030271	
1656.291	10	1	0	0	255	-0.0093447	0.012072	0.0091787	-0.0035483	-0.006712	0.0086709	0.014217	-0.0054961	-0.012604	0.0048724	-0.0023282	0.0030077	-0.0038771	0.0014988	0.002308	-0.0029816	
1656.439	10	1	0	0	255	-0.0093302	0.012053	0.0091381	-0.0035326	-0.0066814	0.0086314	0.014127	-0.0054613	-0.012559	0.0048549	-0.002306	0.0029791	-0.0039682	0.001534	0.0023302	-0.0030102	
1656.565	10	1	0	0	255	-0.0093796	0.012117	0.0090911	-0.0035144	-0.0066481	0.0085884	0.014169	-0.0054774	-0.012751	0.0049294	-0.0022243	0.0028735	-0.0040585	0.0015689	0.0023648	-0.0030549	
1656.716	10	1	0	0	255	-0.0093199	0.01204	0.0090752	-0.0035082	-0.0065818	0.0085028	0.014124	-0.0054601	-0.013077	0.0050552	-0.0021487	0.0027758	-0.0041356	0.0015987	0.0024223	-0.0031293	
1656.840	10	1	0	0	255	-0.0092707	0.011976	0.0090776	-0.0035092	-0.0065822	0.0085033	0.014077	-0.0054419	-0.013063	0.00505	-0.0021353	0.0027585	-0.0040898	0.001581	0.0024441	-0.0031574	
1657.042	10	1	0	0	255	-0.009362	0.012094	0.0091525	-0.0035382	-0.0066687	0.0086149	0.014152	-0.005471	-0.012992	0.0050225	-0.0022944	0.002964	-0.0039316	0.0015199	0.0022987	-0.0029696	
1657.190	10	1	0	0	255	-0.0093035	0.012019	0.0091815	-0.0035494	-0.0066878	0.0086396	0.014298	-0.0055272	-0.012711	0.004914	-0.0023839	0.0030797	-0.0038548	0.0014902	0.0021945	-0.0028349	
1657.315	10	1	0	0	255	-0.009293	0.012005	0.0090975	-0.0035169	-0.0066915	0.0086444	0.014231	-0.0055014	-0.012686	0.0049041	-0.0023853	0.0030814	-0.0038753	0.0014981	0.002212	-0.0028575	
1657.465	10	1	0	0	255	-0.0093493	0.012078	0.0090988	-0.0035174	-0.0066904	0.0086431	0.014132	-0.0054631	-0.012877	0.0049779	-0.0023518	0.0030381	-0.0039609	0.0015312	0.0022653	-0.0029264	
1657.591	10	1	0	0	255	-0.009343	0.01207	0.0090768	-0.0035089	-0.0066615	0.0086057	0.014083	-0.0054442	-0.012783	0.0049417	-0.0022926	0.0029617	-0.0040574	0.0015685	0.0023217	-0.0029993	
1657.791	10	1	0	0	255	-0.0093269	0.012049	0.0090115	-0.0034836	-0.0065936	0.008518	0.014028	-0.0054231	-0.013179	0.0050947	-0.0021875	0.0028259	-0.0041072	0.0015877	0.002405	-0.0031069	
1657.941	10	1	0	0	255	-0.0093084	0.012025	0.0090567	-0.0035011	-0.0065907	0.0085143	0.013978	-0.0054036	-0.012986	0.0050202	-0.0022371	0.00289	-0.0040396	0.0015616	0.0024066	-0.003109	
1658.066	10	1	0	0	255	-0.0093272	0.012049	0.009106	-0.0035202	-0.0067125	0.0086715	0.014146	-0.0054685	-0.012753	0.0049301	-0.0023524	0.0030389	-0.0038764	0.0014985	0.0022721	-0.0029353	
1658.216	10	1	0	0	255	-0.0092508	0.011951	0.0091184	-0.003525	-0.0067125	0.0086715	0.0142	-0.0054892	-0.012662	0.0048947	-0.0024141	0.0031187	-0.0038617	0.0014929	0.0021782	-0.0028139	
1658.341	10	1	0	0	255	-0.009307	0.012023	0.00914	-0.0035333	-0.0066991	0.0086543	0.014175	-0.0054798	-0.012567	0.004858	-0.0023848	0.0030808	-0.0039051	0.0015096	0.0021731	-0.0028073	
1658.541	10	1	0	0	255	-0.0093523	0.012082	0.0091552	-0.0035392	-0.006663	0.0086076	0.014152	-0.0054707	-0.012668	0.0048972	-0.0023386	0.0030211	-0.0039752	0.0015367	0.0022306	-0.0028816	
1658.691	10	1	0	0	255	-0.0093485	0.012077	0.0090412	-0.0034951	-0.0066602	0.008604	0.014009	-0.0054155	-0.012913	0.0049917	-0.002261	0.0029208	-0.0040578	0.0015687	0.0022939	-0.0029634	
1658.841	10	1	0	0	255	-0.0093028	0.012018	0.0089126	-0.0034454	-0.0066226	0.0085555	0.014016	-0.0054181	-0.013248	0.0051216	-0.0021925	0.0028323	-0.0041211	0.0015931	0.0023777	-0.0030716	
1658.967	11	1	0	0	255	-0.0092786	0.011987	0.0089723	-0.0034685	-0.0065881	0.0085108	0.014172	-0.0054785	-0.012946	0.0050046	-0.002194	0.0028343	-0.0040307	0.0015582	0.00236	-0.0030488	
1659.092	11	1	0	0	255	-0.0092901	0.012001	0.0090545	-0.0035003	-0.00664	0.008578	0.01411	-0.0054544	-0.012554	0.004853	-0.0023164	0.0029924	-0.0038975	0.0015067	0.0022682	-0.0029301	
1659.292	11	1	0	0	255	-0.0093392	0.012065	0.0090976	-0.0035169	-0.0066948	0.0086487	0.014133	-0.0054637	-0.012581	0.0048635	-0.0023757	0.003069	-0.0038471	0.0014872	0.0022258	-0.0028754	
1659.442	11	1	0	0	255	-0.0093897	0.01213	0.0090614	-0.0035029	-0.0067002	0.0086557	0.014178	-0.005481	-0.012727	0.00492	-0.0023696	0.0030612	-0.0038605	0.0014924	0.0022186	-0.0028661	
1659.590	11	1	0	0	255	-0.0093777	0.012115	0.0090164	-0.0034855	-0.0066237	0.0085568	0.014105	-0.0054528	-0.012884	0.0049807	-0.0023055	0.0029784	-0.0039333	0.0015205	0.0022432	-0.0028979	
1659.717	11	1	0	0	255	-0.0092685	0.011974	0.0090143	-0.0034847	-0.0065539	0.0084667	0.014035	-0.0054255	-0.01299	0.0050218	-0.0022245	0.0028738	-0.0040298	0.0015578	0.0023083	-0.002982	
1659.916	11	1	0	0	255	-0.0093284	0.012051	0.0089997	-0.0034791	-0.0065348	0.008442	0.013923	-0.0053823	-0.013441	0.0051961	-0.0021539	0.0027825	-0.0041432	0.0016017	0.0023637	-0.0030535	
1660.043	11	1	0	0	255	-0.0093671	0.012101	0.0090237	-0.0034883	-0.0066155	0.0085463	0.014064	-0.0054368	-0.013164	0.0050891	-0.0022121	0.0028578	-0.004024	0.0015556	0.0023452	-0.0030296	
1660.191	11	1	0	0	255	-0.0093577	0.012089	0.0090305	-0.003491	-0.0066581	0.0086012	0.014073	-0.0054404	-0.013129	0.0050755	-0.0022923	0.0029614	-0.0039446	0.0015249	0.0022809	-0.0029465	
1660.341	11	1	0	0	255	-0.0093141	0.012032	0.0091128	-0.0035228	-0.0066294	0.0085642	0.014101	-0.0054511	-0.013186	0.0050975	-0.0023168	0.002993	-0.003938	0.0015224	0.0022768	-0.0029412	
1660.468	11	1	0	0	255	-0.0093881	0.012128	0.0090914	-0.0035145	-0.0066073	0.0085356	0.014207	-0.005492	-0.013005	0.0050273	-0.00226	0.0029195	-0.0039702	0.0015348	0.0023115	-0.0029861	
1660.667	11	1	0	0	255	-0.0093799	0.012117	0.0089914	-0.0034759	-0.0065997	0.0085258	0.014192	-0.0054865	-0.013117	0.0050707	-0.0021987	0.0028404	-0.0040546	0.0015674	0.0023753	-0.0030686	
1660.792	11	1	0	0	255	-0.0093132	0.012031	0.0089744	-0.0034693	-0.0065542	0.0084671	0.014149	-0.0054696	-0.013532	0.0052312	-0.0021159	0.0027334	-0.0041368	0.0015992	0.0024516	-0.0031672	
1660.942	11	1	0	0	255	-0.0093327	0.012056	0.0090328	-0.0034919	-0.0065817	0.0085026	0.014131	-0.0054627	-0.013193	0.0050999	-0.0021857	0.0028236	-0.0039963	0.0015449	0.0024285	-0.0031373	
1661.092	11	1	0	0	255	-0.0093558	0.012086	0.0090506	-0.0034988	-0.0066156	0.0085464	0.0141	-0.0054507	-0.013077	0.0050553	-0.0022754	0.0029395	-0.0038851	0.0015019	0.0023757	-0.003069	
1661.217	11	1	0	0	255	-0.0094051	0.01215	0.0090439	-0.0034961	-0.0066229	0.0085558	0.014093	-0.0054479	-0.01293	0.0049986	-0.0022668	0.0029284	-0.0039136	0.0015129	0.0023375	-0.0030197	
1661.417	11	1	0	0	255	-0.0093689	0.012103	0.0090438	-0.0034961	-0.0065911	0.0085147	0.014093	-0.0054482	-0.012942	0.0050029	-0.0022333	0.0028852	-0.0039709	0.0015351	0.002376	-0.0030694	
1661.542	11	1	0	0	255	-0.0092533	0.011954	0.0090613	-0.0035029	-0.0065388	0.0084472	0.014173	-0.0054791	-0.013119	0.0050717	-0.0021587	0.0027888	-0.0039802	0.0015386	0.0024466	-0.0031606	
1661.692	11	1	0	0	255	-0.0092587	0.011961	0.0090074	-0.003482	-0.0064871	0.0083804	0.01413	-0.0054625	-0.013416	0.0051863	-0.0020983	0.0027108	-0.0040427	0.0015628	0.002504	-0.0032348	
1661.842	11	1	0	0	255	-0.0092973	0.012011	0.0090435	-0.003496	-0.0065685	0.0084856	0.014163	-0.0054751	-0.013045	0.0050429	-0.0022055	0.0028492	-0.003913	0.0015127	0.0024223	-0.0031293	
1661.967	11	1	0	0	255	-0.0092843	0.011994	0.0091323	-0.0035303	-0.0065941	0.0085186	0.014238	-0.0055042	-0.013011	0.0050298	-0.0022928	0.002962	-0.0037958	0.0014674	0.0023613	-0.0030505	
1662.168	11	1	0	0	255	-0.0092679	0.011973	0.0091188	-0.0035251	-0.0066178	0.0085492	0.014299	-0.0055277	-0.013036	0.0050395	-0.0022979	0.0029685	-0.003818	0.001476	0.0023514	-0.0030376	
1662.293	11	1	0	0	255	-0.0092715	0.011977	0.0091142	-0.0035233	-0.0066054	0.0085332	0.01431	-0.0055318	-0.012849	0.0049672	-0.0022615	0.0029215	-0.0038458	0.0014867	0.0023659	-0.0030564	
1662.443	11	1	0	0	255	-0.0092999	0.012014	0.0090867	-0.0035127	-0.0066012	0.0085278	0.01423	-0.0055009	-0.012642	0.004887	-0.0021918	0.0028315	-0.0039002	0.0015077	0.0024229	-0.0031301	
1662.591	11	1	0	0	255	-0.0092174	0.011907	0.0090328	-0.0034919	-0.0065213	0.0084245	0.014108	-0.0054536	-0.013223	0.0051116	-0.0021099	0.0027257	-0.0039345	0.001521	0.0024937	-0.0032214	
1662.718	11	1	0	0	255	-0.0092776	0.011985	0.0090289	-0.0034904	-0.0065497	0.0084612	0.014146	-0.0054686	-0.013033	0.0050384	-0.0022193	0.0028671	-0.0038342	0.0014822	0.0024147	-0.0031195	
1662.917	11	1	0	0	255	-0.0092615	0.011965	0.009136	-0.0035318	-0.0066696	0.0086162	0.014223	-0.0054982	-0.012766	0.0049351	-0.0023469	0.0030319	-0.0036975	0.0014294	0.0023045	-0.0029771	
1663.068	11	1	0	0	255	-0.009246	0.011944	0.0091709	-0.0035453	-0.0066852	0.0086363	0.014345	-0.0055455	-0.012666	0.0048963	-0.0023824	0.0030777	-0.003644	0.0014087	0.0022713	-0.0029341	
1663.192	11	1	0	0	255	-0.0092725	0.011979	0.0090886	-0.0035134	-0.0066852	0.0086362	0.014287	-0.0055231	-0.012759	0.0049323	-0.0023531	0.0030398	-0.0037178	0.0014372	0.0022875	-0.0029551	
1663.342	11	1	0	0	255	-0.0092439	0.011942	0.0090433	-0.0034959	-0.0066272	0.0085614	0.014077	-0.0054419	-0.012767	0.0049353	-0.0022868	0.0029542	-0.0038295	0.0014804	0.002355	-0.0030424	
1663.469	11	1	0	0	255	-0.0092668	0.011971	0.0090679	-0.0035054	-0.006558	0.0084719	0.014086	-0.0054452	-0.012776	0.004939	-0.0022207	0.0028689	-0.0039013	0.0015081	0.0024284	-0.0031372	
1663.667	11	1	0	0	255	-0.0092915	0.012003	0.0090943	-0.0035156	-0.0065298	0.0084355	0.014141	-0.0054666	-0.013066	0.0050508	-0.0021501	0.0027777	-0.0039066	0.0015102	0.0024597	-0.0031776	
1663.819	11	1	0	0	255	-0.009291	0.012003	0.00915	-0.0035372	-0.0066081	0.0085367	0.014185	-0.0054838	-0.012791	0.0049445	-0.0023027	0.0029748	-0.0036962	0.0014289	0.0023325	-0.0030132	
1663.943	11	1	0	0	255	-0.0093454	0.012073	0.0091838	-0.0035503	-0.0066562	0.0085988	0.014222	-0.005498	-0.0124	0.0047934	-0.0024006	0.0031012	-0.0035753	0.0013821	0.0022344	-0.0028865	
1664.092	11	1	0	0	255	-0.0093549	0.012085	0.0091727	-0.0035459	-0.0067357	0.0087015	0.014264	-0.0055141	-0.012415	0.0047992	-0.0023996	0.0030999	-0.0035989	0.0013913	0.0022473	-0.0029031	
1664.218	11	1	0	0	255	-0.0093194	0.012039	0.0091321	-0.0035303	-0.0066891	0.0086413	0.014171	-0.0054781	-0.012705	0.0049115	-0.0023656	0.0030561	-0.0037179	0.0014372	0.0022854	-0.0029524	
1664.418	11	1	0	0	255	-0.0092203	0.011911	0.0090443	-0.0034963	-0.0066031	0.0085302	0.014156	-0.0054725	-0.012825	0.0049578	-0.002309	0.0029829	-0.0037939	0.0014666	0.0023493	-0.0030349	
1664.568	11	1	0	0	255	-0.0092143	0.011904	0.0089947	-0.0034771	-0.0065473	0.0084581	0.014035	-0.0054257	-0.012907	0.0049897	-0.0022295	0.0028802	-0.0038612	0.0014927	0.0024343	-0.0031447	
1664.694	11	1	0	0	255	-0.0092553	0.011956	0.0090643	-0.003504	-0.006537	0.0084448	0.014165	-0.0054759	-0.012847	0.0049662	-0.0022314	0.0028826	-0.0038048	0.0014708	0.0023965	-0.003096	
1664.843	11	1	0	0	255	-0.0092965	0.01201	0.0091437	-0.0035347	-0.006648	0.0085882	0.014256	-0.0055109	-0.012605	0.0048729	-0.0023719	0.0030642	-0.0036419	0.0014079	0.0022771	-0.0029416	
1664.969	11	1	0	0	255	-0.0093105	0.012028	0.0091779	-0.0035479	-0.0066818	0.0086319	0.014233	-0.0055019	-0.012444	0.0048104	-0.0024264	0.0031346	-0.0036102	0.0013956	0.0022263	-0.0028761	
1665.169	11	1	0	0	255	-0.0093268	0.012049	0.0091584	-0.0035404	-0.0066934	0.0086469	0.014179	-0.0054814	-0.01255	0.0048517	-0.0024204	0.0031268	-0.0036872	0.0014254	0.0022218	-0.0028702	
1665.319	11	1	0	0	255	-0.0093594	0.012091	0.0090589	-0.003502	-0.0066599	0.0086036	0.014014	-0.0054174	-0.012744	0.0049265	-0.002376	0.0030694	-0.0037697	0.0014573	0.0022668	-0.0029283	
1665.444	11	1	0	0	255	-0.0093063	0.012022	0.0089541	-0.0034614	-0.0066286	0.0085632	0.01404	-0.0054276	-0.012878	0.0049782	-0.0022923	0.0029613	-0.0038399	0.0014844	0.0023237	-0.0030018	
1665.594	11	1	0	0	255	-0.0092661	0.01197	0.0090078	-0.0034822	-0.0066092	0.0085381	0.014073	-0.0054402	-0.012851	0.004968	-0.0022233	0.0028722	-0.0038622	0.001493	0.0023676	-0.0030585	
1665.719	11	1	0	0	255	-0.0093439	0.012071	0.0090699	-0.0035062	-0.0066084	0.0085371	0.014068	-0.0054382	-0.01261	0.0048746	-0.002275	0.002939	-0.0038	0.001469	0.0023377	-0.0030199	
1665.918	11	1	0	0	255	-0.0092629	0.011966	0.0091351	-0.0035314	-0.0066426	0.0085812	0.014149	-0.0054695	-0.012896	0.0049853	-0.0024041	0.0031057	-0.0037064	0.0014328	0.0022486	-0.0029048	
1666.069	11	1	0	0	255	-0.009319	0.012039	0.0091538	-0.0035386	-0.0066424	0.008581	0.014072	-0.00544	-0.012729	0.0049205	-0.0024608	0.003179	-0.0036682	0.0014181	0.002234	-0.0028861	
1666.195	11	1	0	0	255	-0.0093151	0.012034	0.0090125	-0.003484	-0.006594	0.0085185	0.014048	-0.0054307	-0.012691	0.0049061	-0.002406	0.0031082	-0.003747	0.0014485	0.0022843	-0.002951	
1666.344	11	1	0	0	255	-0.0092328	0.011927	0.0090003	-0.0034793	-0.0065793	0.0084995	0.014127	-0.0054612	-0.012687	0.0049044	-0.0023536	0.0030404	-0.003813	0.001474	0.0023006	-0.002972	
1666.470	12	1	0	0	255	-0.0092959	0.012009	0.0089416	-0.0034566	-0.0065977	0.0085232	0.014077	-0.0054417	-0.012804	0.0049496	-0.002289	0.0029571	-0.0038796	0.0014998	0.0023604	-0.0030493	
1666.693	12	1	0	0	255	-0.0093203	0.01204	0.0089607	-0.003464	-0.0065966	0.0085218	0.013995	-0.0054101	-0.013034	0.0050385	-0.0022775	0.0029422	-0.0038329	0.0014817	0.0023566	-0.0030444	
1666.818	12	1	0	0	255	-0.009339	0.012065	0.0090224	-0.0034878	-0.006613	0.008543	0.014087	-0.0054458	-0.012898	0.0049861	-0.0023803	0.003075	-0.0037251	0.00144	0.002255	-0.0029131	
1666.944	12	1	0	0	255	-0.0093421	0.012069	0.0090871	-0.0035128	-0.0066802	0.0086298	0.014187	-0.0054845	-0.012602	0.0048716	-0.002436	0.003147	-0.0036317	0.0014039	0.002232	-0.0028834	
1667.095	12	1	0	0	255	-0.0093629	0.012096	0.0090184	-0.0034863	-0.006695	0.008649	0.014125	-0.0054605	-0.012487	0.0048273	-0.0024166	0.0031219	-0.0037295	0.0014417	0.0022531	-0.0029107	
1667.219	12	1	0	0	255	-0.0094633	0.012225	0.0089921	-0.0034761	-0.0066491	0.0085897	0.014042	-0.0054285	-0.012526	0.0048422	-0.0023571	0.003045	-0.003817	0.0014756	0.0023111	-0.0029856	
1667.444	12	1	0	0	255	-0.0093449	0.012072	0.0089714	-0.0034681	-0.0066165	0.0085475	0.014008	-0.0054151	-0.01283	0.00496	-0.0023205	0.0029978	-0.0038495	0.0014881	0.0023501	-0.003036	
1667.569	12	1	0	0	255	-0.0093001	0.012014	0.0089753	-0.0034696	-0.0066077	0.0085362	0.01412	-0.0054586	-0.012467	0.0048196	-0.0022592	0.0029185	-0.0038788	0.0014994	0.0023726	-0.0030651	
1667.694	12	1	0	0	255	-0.0093486	0.012077	0.0090807	-0.0035104	-0.0066403	0.0085783	0.014102	-0.0054513	-0.012359	0.0047777	-0.0023996	0.0030999	-0.0037227	0.0014391	0.0022722	-0.0029354	
1667.844	12	1	0	0	255	-0.0093392	0.012065	0.009144	-0.0035349	-0.0067107	0.0086692	0.014207	-0.005492	-0.012264	0.0047408	-0.0024736	0.0031955	-0.003651	0.0014114	0.0022055	-0.0028492	
1667.970	12	1	0	0	255	-0.0094003	0.012144	0.0091005	-0.003518	-0.0067349	0.0087005	0.014169	-0.0054774	-0.012308	0.0047581	-0.002497	0.0032258	-0.0036703	0.0014188	0.0021915	-0.0028311	
1668.196	12	1	0	0	255	-0.0093726	0.012108	0.0091154	-0.0035238	-0.0067228	0.0086849	0.014166	-0.0054762	-0.012355	0.0047763	-0.0024595	0.0031773	-0.0037747	0.0014592	0.0022311	-0.0028823	
1668.320	12	1	0	0	255	-0.0093533	0.012083	0.0090859	-0.0035124	-0.0066435	0.0085824	0.014103	-0.0054518	-0.012455	0.0048147	-0.0023854	0.0030816	-0.003849	0.0014879	0.0022846	-0.0029513	
1668.445	12	1	0	0	255	-0.0093556	0.012086	0.0090348	-0.0034926	-0.0066062	0.0085342	0.01407	-0.0054392	-0.012708	0.0049127	-0.0023287	0.0030083	-0.0039191	0.001515	0.0023418	-0.0030252	
1668.595	12	1	0	0	255	-0.009362	0.012094	0.0090182	-0.0034862	-0.0066788	0.008628	0.014099	-0.0054505	-0.012535	0.0048456	-0.0024444	0.0031577	-0.0037504	0.0014498	0.0022677	-0.0029296	
1668.720	12	1	0	0	255	-0.0093871	0.012127	0.009098	-0.0035171	-0.0067625	0.0087361	0.014144	-0.0054679	-0.012205	0.0047182	-0.0025703	0.0033204	-0.0036235	0.0014007	0.0021362	-0.0027597	
1668.945	12	1	0	0	255	-0.0093796	0.012117	0.0091819	-0.0035495	-0.0068037	0.0087894	0.014232	-0.0055018	-0.011934	0.0046133	-0.0026098	0.0033714	-0.0036031	0.0013929	0.0020977	-0.00271	
1669.070	12	1	0	0	255	-0.0094495	0.012207	0.0092065	-0.003559	-0.0067604	0.0087335	0.014306	-0.0055303	-0.012052	0.0046592	-0.0025729	0.0033238	-0.003678	0.0014218	0.0021082	-0.0027235	
1669.194	12	1	0	0	255	-0.0094642	0.012226	0.0091544	-0.0035389	-0.0067438	0.008712	0.014226	-0.0054995	-0.012162	0.0047016	-0.0025416	0.0032834	-0.0037664	0.001456	0.0021545	-0.0027833	
1669.345	12	1	0	0	255	-0.0094152	0.012163	0.0090597	-0.0035023	-0.0067156	0.0086756	0.014136	-0.0054645	-0.01241	0.0047974	-0.00247	0.0031909	-0.0038634	0.0014935	0.002233	-0.0028847	
1669.546	12	1	0	0	255	-0.0093762	0.012113	0.0090215	-0.0034875	-0.0066584	0.0086016	0.014193	-0.0054869	-0.012624	0.0048801	-0.0023938	0.0030924	-0.0038725	0.001497	0.0022804	-0.0029459	
1669.696	12	1	0	0	255	-0.0093574	0.012088	0.0090805	-0.0035103	-0.0066994	0.0086547	0.01422	-0.0054973	-0.012308	0.004758	-0.0025321	0.003271	-0.0037158	0.0014365	0.0021691	-0.0028021	
1669.819	12	1	0	0	255	-0.0093972	0.01214	0.0091803	-0.0035489	-0.0067556	0.0087273	0.014222	-0.0054979	-0.012019	0.0046463	-0.002663	0.0034402	-0.0035966	0.0013903	0.002058	-0.0026586	
1669.945	12	1	0	0	255	-0.0094024	0.012146	0.0092108	-0.0035607	-0.0067796	0.0087582	0.014206	-0.0054916	-0.011696	0.0045213	-0.0026875	0.0034719	-0.0035624	0.0013771	0.0020283	-0.0026202	
1670.096	12	1	0	0	255	-0.0093775	0.012114	0.0091571	-0.0035399	-0.0067939	0.0087767	0.0142	-0.0054894	-0.011761	0.0045465	-0.0026607	0.0034372	-0.0036237	0.0014008	0.0020408	-0.0026364	
1670.295	12	1	0	0	255	-0.0093618	0.012094	0.0091276	-0.0035285	-0.0067585	0.008731	0.014124	-0.0054599	-0.011761	0.0045467	-0.0026079	0.0033691	-0.0037683	0.0014567	0.0021079	-0.0027231	
1670.446	12	1	0	0	255	-0.009379	0.012116	0.0090848	-0.003512	-0.006702	0.008658	0.014092	-0.0054475	-0.012028	0.0046496	-0.0025353	0.0032753	-0.0038652	0.0014942	0.0021704	-0.0028038	
1670.570	12	1	0	0	255	-0.0094033	0.012148	0.0090922	-0.0035148	-0.0066413	0.0085795	0.014056	-0.0054337	-0.011882	0.0045934	-0.0025143	0.0032481	-0.0037673	0.0014563	0.0021812	-0.0028178	
1670.696	12	1	0	0	255	-0.0093508	0.01208	0.0091513	-0.0035377	-0.0067425	0.0087103	0.01415	-0.00547	-0.011865	0.0045865	-0.0026463	0.0034186	-0.0036279	0.0014024	0.002048	-0.0026457	
1670.844	12	1	0	0	255	-0.0093893	0.01213	0.0091943	-0.0035543	-0.0068082	0.0087952	0.014207	-0.0054921	-0.011612	0.0044889	-0.0027172	0.0035102	-0.0036163	0.001398	0.001992	-0.0025734	
1671.045	12	1	0	0	255	-0.009474	0.012239	0.0091767	-0.0035475	-0.0067928	0.0087754	0.014192	-0.0054863	-0.011499	0.0044454	-0.0027167	0.0035095	-0.0036461	0.0014095	0.0019959	-0.0025785	
1671.195	12	1	0	0	255	-0.0094461	0.012203	0.0091504	-0.0035373	-0.0068338	0.0088283	0.014143	-0.0054674	-0.011904	0.0046019	-0.0026577	0.0034333	-0.0037061	0.0014327	0.0020483	-0.0026462	
1671.320	12	1	0	0	255	-0.0094192	0.012168	0.009097	-0.0035167	-0.0067708	0.0087468	0.014119	-0.005458	-0.011817	0.0045682	-0.0025929	0.0033496	-0.0037699	0.0014574	0.0021061	-0.0027208	
1671.470	12	1	0	0	255	-0.0093805	0.012118	0.0090773	-0.0035091	-0.00671	0.0086684	0.014119	-0.0054583	-0.011965	0.0046254	-0.0025039	0.0032347	-0.0038235	0.0014781	0.0021322	-0.0027544	
1671.595	12	1	0	0	255	-0.0093529	0.012083	0.0090997	-0.0035177	-0.0067798	0.0087586	0.014139	-0.0054657	-0.011807	0.0045644	-0.0026439	0.0034155	-0.0036902	0.0014266	0.0020384	-0.0026333	
1671.820	12	1	0	0	255	-0.0094173	0.012166	0.0091703	-0.003545	-0.006797	0.0087807	0.014157	-0.0054727	-0.011708	0.0045261	-0.0027066	0.0034965	-0.0036913	0.001427	0.0019797	-0.0025575	
1671.945	12	1	0	0	255	-0.0094406	0.012196	0.0091592	-0.0035407	-0.0067922	0.0087745	0.014158	-0.0054731	-0.011455	0.0044284	-0.0027063	0.0034962	-0.0037047	0.0014321	0.0019779	-0.0025552	
1672.071	12	1	0	0	255	-0.009452	0.012211	0.0091157	-0.0035239	-0.0068069	0.0087936	0.014139	-0.0054656	-0.011597	0.0044831	-0.002658	0.0034337	-0.0037917	0.0014658	0.0019992	-0.0025827	
1672.221	12	1	0	0	255	-0.0093661	0.0121	0.0091172	-0.0035245	-0.0067599	0.0087329	0.014119	-0.0054581	-0.011811	0.0045657	-0.0025762	0.0033281	-0.0038521	0.0014891	0.0020803	-0.0026875	
1672.346	12	1	0	0	255	-0.0093644	0.012097	0.0090503	-0.0034986	-0.0067132	0.0086725	0.014076	-0.0054413	-0.011739	0.004538	-0.002501	0.0032309	-0.0039174	0.0015144	0.0021832	-0.0028204	
1672.571	12	1	0	0	255	-0.0093737	0.012109	0.0091163	-0.0035242	-0.0067667	0.0087416	0.014053	-0.0054324	-0.011657	0.0045063	-0.0026059	0.0033664	-0.003755	0.0014516	0.0020844	-0.0026928	
1672.696	12	1	0	0	255	-0.0093808	0.012119	0.0091219	-0.0035263	-0.0068227	0.0088139	0.01412	-0.0054583	-0.011375	0.0043973	-0.0027263	0.003522	-0.0036108	0.0013958	0.0019932	-0.002575	
1672.820	12	1	0	0	255	-0.0094636	0.012226	0.0091448	-0.0035352	-0.0068311	0.0088248	0.014188	-0.0054846	-0.011103	0.0042923	-0.0027405	0.0035403	-0.0036407	0.0014074	0.001941	-0.0025075	
1672.970	12	1	0	0	255	-0.0094178	0.012166	0.009215	-0.0035623	-0.0068293	0.0088225	0.014194	-0.0054872	-0.010941	0.0042295	-0.0027197	0.0035135	-0.003731	0.0014423	0.0019549	-0.0025254	
1673.095	12	1	0	0	255	-0.0094023	0.012146	0.0091549	-0.0035391	-0.0068307	0.0088243	0.014155	-0.0054721	-0.011269	0.0043564	-0.002679	0.0034609	-0.0037832	0.0014625	0.0020164	-0.0026049	
1673.320	12	1	0	0	255	-0.0094506	0.012209	0.0091059	-0.0035201	-0.0067452	0.0087138	0.014099	-0.0054504	-0.011329	0.0043796	-0.0025926	0.0033493	-0.0038732	0.0014973	0.0020845	-0.0026929	
1673.445	12	1	0	0	255	-0.0094184	0.012167	0.0091295	-0.0035292	-0.0067527	0.0087235	0.014102	-0.0054516	-0.011097	0.0042897	-0.0026014	0.0033606	-0.0038512	0.0014888	0.0021107	-0.0027267	
1673.571	12	1	0	0	255	-0.0094137	0.012161	0.0091782	-0.0035481	-0.006887	0.008897	0.014134	-0.005464	-0.010887	0.0042085	-0.0027349	0.0035331	-0.0036208	0.0013997	0.0019604	-0.0025325	
1673.721	12	1	0	0	255	-0.009407	0.012152	0.009266	-0.003582	-0.0069024	0.0089169	0.0142	-0.0054894	-0.010909	0.0042171	-0.0028059	0.0036248	-0.0035211	0.0013612	0.001885	-0.0024351	
1673.845	12	1	0	0	255	-0.0093612	0.012093	0.009257	-0.0035785	-0.0068826	0.0088913	0.01417	-0.0054777	-0.010707	0.004139	-0.0028275	0.0036527	-0.0035837	0.0013854	0.0018834	-0.0024331	
1674.071	13	1	0	0	255	-0.0094317	0.012184	0.0092163	-0.0035628	-0.0068659	0.0088697	0.014134	-0.0054638	-0.01088	0.004206	-0.0027567	0.0035613	-0.0036785	0.001422	0.0019484	-0.002517	
1674.196	13	1	0	0	255	-0.0095254	0.012305	0.0091745	-0.0035466	-0.0068311	0.0088247	0.014176	-0.0054799	-0.01096	0.0042367	-0.0026749	0.0034556	-0.0037226	0.0014391	0.0020132	-0.0026007	
1674.321	13	1	0	0	255	-0.0094643	0.012227	0.0091301	-0.0035295	-0.0068031	0.0087886	0.014165	-0.005476	-0.010968	0.0042398	-0.0026343	0.0034031	-0.0038268	0.0014793	0.0020546	-0.0026543	
1674.471	13	1	0	0	255	-0.009449	0.012207	0.0091708	-0.0035452	-0.006788	0.0087691	0.014187	-0.0054844	-0.010749	0.0041552	-0.0027066	0.0034965	-0.0037439	0.0014473	0.0020369	-0.0026314	
1674.621	13	1	0	0	255	-0.0094819	0.012249	0.0092955	-0.0035934	-0.0068506	0.00885	0.014213	-0.0054944	-0.010832	0.0041873	-0.0028439	0.0036739	-0.0035526	0.0013733	0.001901	-0.0024558	
1674.821	13	1	0	0	255	-0.0094574	0.012218	0.0093382	-0.0036099	-0.0069154	0.0089337	0.014218	-0.0054962	-0.010509	0.0040627	-0.002892	0.0037361	-0.0034938	0.0013506	0.0018314	-0.0023659	
1674.946	13	1	0	0	255	-0.0094527	0.012212	0.0092998	-0.0035951	-0.0069268	0.0089484	0.014194	-0.0054871	-0.010557	0.004081	-0.0028771	0.0037168	-0.0035083	0.0013562	0.0018465	-0.0023854	
1675.072	13	1	0	0	255	-0.0094915	0.012262	0.0092508	-0.0035761	-0.0069169	0.0089356	0.014254	-0.0055101	-0.010882	0.0042066	-0.0028243	0.0036486	-0.0036028	0.0013927	0.0018886	-0.0024398	
1675.222	13	1	0	0	255	-0.0094654	0.012228	0.009207	-0.0035592	-0.006869	0.0088738	0.014214	-0.005495	-0.011273	0.0043578	-0.0027643	0.003571	-0.0036891	0.0014261	0.0019577	-0.002529	
1675.371	13	1	0	0	255	-0.009449	0.012207	0.0091298	-0.0035294	-0.0068214	0.0088122	0.014069	-0.0054388	-0.011246	0.0043476	-0.00269	0.0034751	-0.0037794	0.001461	0.0020316	-0.0026245	
1675.572	13	1	0	0	255	-0.00945	0.012208	0.009208	-0.0035596	-0.0068323	0.0088263	0.014098	-0.0054501	-0.011155	0.0043124	-0.0027677	0.0035755	-0.0036572	0.0014138	0.0019879	-0.002568	
1675.697	13	1	0	0	255	-0.0094119	0.012159	0.0092602	-0.0035798	-0.0068891	0.0088997	0.014156	-0.0054724	-0.010967	0.0042398	-0.0028562	0.0036898	-0.0035477	0.0013715	0.0019053	-0.0024613	
1675.821	13	1	0	0	255	-0.0095359	0.012319	0.009259	-0.0035793	-0.0068876	0.0088977	0.014234	-0.0055025	-0.01066	0.0041207	-0.0028832	0.0037247	-0.0035219	0.0013615	0.0018843	-0.0024342	
1675.971	13	1	0	0	255	-0.0095142	0.012291	0.0092547	-0.0035776	-0.0068272	0.0088197	0.014194	-0.005487	-0.010831	0.004187	-0.0028462	0.0036769	-0.0035646	0.001378	0.0018959	-0.0024493	
1676.096	13	1	0	0	255	-0.0094885	0.012258	0.0092268	-0.0035669	-0.0068003	0.008785	0.014135	-0.0054643	-0.011144	0.004308	-0.0027713	0.0035801	-0.0036066	0.0013942	0.0019513	-0.0025207	
1676.321	13	1	0	0	255	-0.0094761	0.012242	0.0091843	-0.0035504	-0.0068111	0.008799	0.014185	-0.0054836	-0.011563	0.0044698	-0.002703	0.0034919	-0.003684	0.0014241	0.0020089	-0.0025952	
1676.446	13	1	0	0	255	-0.0094239	0.012174	0.0091623	-0.0035419	-0.0068317	0.0088255	0.014252	-0.0055094	-0.011101	0.0042915	-0.0027384	0.0035376	-0.0036228	0.0014005	0.0020025	-0.0025869	
1676.572	13	1	0	0	255	-0.0094076	0.012153	0.0092902	-0.0035914	-0.0069174	0.0089362	0.014188	-0.0054846	-0.010962	0.0042377	-0.0028482	0.0036794	-0.0034974	0.001352	0.0018804	-0.0024292	
1676.722	13	1	0	0	255	-0.0094592	0.01222	0.0093124	-0.0035999	-0.006929	0.0089513	0.01425	-0.0055088	-0.011168	0.0043173	-0.0028659	0.0037024	-0.0034912	0.0013496	0.0018391	-0.0023758	
1676.847	13	1	0	0	255	-0.0094673	0.01223	0.0092256	-0.0035664	-0.0068606	0.0088628	0.014212	-0.0054938	-0.011378	0.0043985	-0.0028544	0.0036875	-0.0035234	0.0013621	0.0018751	-0.0024224	
1677.071	13	1	0	0	255	-0.00942	0.012169	0.0092054	-0.0035586	-0.0068288	0.0088218	0.014163	-0.0054751	-0.011353	0.0043888	-0.0027908	0.0036053	-0.0035965	0.0013903	0.0019233	-0.0024846	
1677.197	13	1	0	0	255	-0.0094016	0.012145	0.0091711	-0.0035453	-0.0068209	0.0088116	0.014135	-0.0054644	-0.011466	0.0044325	-0.0027395	0.003539	-0.0037249	0.0014399	0.0020003	-0.0025841	
1677.322	13	1	0	0	255	-0.0094236	0.012174	0.0091314	-0.00353	-0.0067741	0.0087512	0.014194	-0.005487	-0.011491	0.0044421	-0.0026737	0.003454	-0.0037696	0.0014572	0.0020841	-0.0026923	
1677.472	13	1	0	0	255	-0.0094158	0.012164	0.0092195	-0.003564	-0.0068127	0.0088011	0.014199	-0.0054892	-0.011261	0.0043531	-0.0027534	0.003557	-0.0035611	0.0013766	0.0019688	-0.0025434	
1677.597	13	1	0	0	255	-0.0094643	0.012227	0.0092942	-0.0035929	-0.0068842	0.0088934	0.014224	-0.0054986	-0.011362	0.0043924	-0.0028781	0.003718	-0.003469	0.001341	0.0018474	-0.0023866	
1677.822	13	1	0	0	255	-0.0095041	0.012278	0.0093025	-0.0035961	-0.0068886	0.0088991	0.014204	-0.005491	-0.011241	0.0043454	-0.0029304	0.0037857	-0.0034104	0.0013184	0.0018175	-0.002348	
1677.947	13	1	0	0	255	-0.0094584	0.012219	0.0092536	-0.0035772	-0.0068655	0.0088693	0.01418	-0.0054815	-0.011003	0.0042536	-0.0028778	0.0037177	-0.0034329	0.0013271	0.0018602	-0.0024031	
1678.097	13	1	0	0	255	-0.0093969	0.012139	0.009204	-0.0035581	-0.0068048	0.0087908	0.014173	-0.0054788	-0.011255	0.0043507	-0.0028056	0.0036244	-0.0035704	0.0013802	0.0019192	-0.0024793	
1678.223	13	1	0	0	255	-0.0094033	0.012148	0.0091446	-0.0035351	-0.0067772	0.0087551	0.014141	-0.0054666	-0.011194	0.0043274	-0.0027459	0.0035473	-0.0036963	0.0014289	0.0019852	-0.0025645	
1678.372	13	1	0	0	255	-0.009405	0.01215	0.0090863	-0.0035125	-0.0067731	0.0087498	0.014114	-0.0054561	-0.011314	0.0043738	-0.0026478	0.0034206	-0.0037663	0.001456	0.0020422	-0.0026382	
1678.573	13	1	0	0	255	-0.0093665	0.0121	0.0091763	-0.0035473	-0.0068333	0.0088277	0.014206	-0.0054918	-0.011124	0.0043003	-0.0027759	0.0035861	-0.0035457	0.0013707	0.001957	-0.0025281	
1678.698	13	1	0	0	255	-0.0094067	0.012152	0.0091827	-0.0035498	-0.0068859	0.0088956	0.014231	-0.0055012	-0.010758	0.0041588	-0.0028942	0.0037389	-0.0033882	0.0013098	0.0018414	-0.0023788	
1678.822	13	1	0	0	255	-0.0093921	0.012133	0.0092538	-0.0035773	-0.0069267	0.0089482	0.014233	-0.0055023	-0.010861	0.0041986	-0.002942	0.0038006	-0.003419	0.0013217	0.0017904	-0.002313	
1678.972	13	1	0	0	255	-0.0094659	0.012229	0.0092069	-0.0035592	-0.0069217	0.0089419	0.014251	-0.0055091	-0.01077	0.0041636	-0.0029378	0.0037953	-0.0034941	0.0013507	0.0018201	-0.0023513	
1679.172	13	1	0	0	255	-0.0094611	0.012222	0.0091436	-0.0035347	-0.0069204	0.0089401	0.014173	-0.0054789	-0.010759	0.004159	-0.0028373	0.0036654	-0.0036374	0.0014061	0.0018978	-0.0024517	
1679.322	13	1	0	0	255	-0.0094445	0.012201	0.0091172	-0.0035245	-0.0068224	0.0088135	0.014008	-0.0054153	-0.011116	0.0042972	-0.0027624	0.0035686	-0.0036793	0.0014223	0.0019536	-0.0025237	
1679.447	13	1	0	0	255	-0.0094073	0.012153	0.0090968	-0.0035166	-0.0067799	0.0087586	0.013993	-0.0054095	-0.011111	0.0042954	-0.0026751	0.0034558	-0.0037365	0.0014445	0.0020112	-0.0025982	
1679.572	13	1	0	0	255	-0.0094202	0.01217	0.0091619	-0.0035418	-0.0068071	0.0087937	0.014084	-0.0054446	-0.010921	0.0042216	-0.0027899	0.0036042	-0.0035804	0.0013841	0.0019138	-0.0024723	
1679.723	13	1	0	0	255	-0.0094775	0.012244	0.0091851	-0.0035507	-0.006925	0.008946	0.01425	-0.0055086	-0.010538	0.0040738	-0.0029298	0.0037848	-0.0034482	0.001333	0.0018269	-0.0023601	
1679.923	13	1	0	0	255	-0.0094648	0.012227	0.0091894	-0.0035524	-0.006985	0.0090236	0.0142	-0.0054894	-0.010368	0.0040079	-0.0029528	0.0038146	-0.0034125	0.0013192	0.0017798	-0.0022992	
1680.072	13	1	0	0	255	-0.0094256	0.012176	0.0092443	-0.0035736	-0.0069641	0.0089966	0.014156	-0.0054725	-0.010509	0.0040625	-0.0029155	0.0037664	-0.0034407	0.0013301	0.0018016	-0.0023274	
1680.198	13	1	0	0	255	-0.0094651	0.012227	0.0091828	-0.0035498	-0.0069239	0.0089447	0.014099	-0.0054502	-0.010579	0.0040896	-0.0028304	0.0036564	-0.0035676	0.0013791	0.0018874	-0.0024383	
1680.348	13	1	0	0	255	-0.0093888	0.012129	0.0091437	-0.0035347	-0.0069049	0.0089201	0.014082	-0.0054437	-0.010921	0.0042217	-0.0027616	0.0035676	-0.0036749	0.0014206	0.0019524	-0.0025222	
1680.473	13	1	0	0	255	-0.0093923	0.012133	0.0091348	-0.0035313	-0.0068312	0.0088249	0.014117	-0.0054574	-0.010805	0.004177	-0.0026998	0.0034877	-0.0037158	0.0014364	0.0020021	-0.0025865	
1680.673	13	1	0	0	255	-0.009432	0.012185	0.0091236	-0.003527	-0.0068985	0.0089118	0.01404	-0.0054276	-0.010241	0.0039591	-0.0028216	0.0036451	-0.0035822	0.0013848	0.0018937	-0.0024464	
1680.823	13	1	0	0	255	-0.0094443	0.012201	0.0091313	-0.0035299	-0.0069324	0.0089557	0.014136	-0.0054645	-0.010245	0.0039605	-0.0029112	0.0037609	-0.0034881	0.0013484	0.0018328	-0.0023677	
1680.948	13	1	0	0	255	-0.0094331	0.012186	0.0091665	-0.0035436	-0.0069137	0.0089315	0.014187	-0.0054843	-0.010556	0.0040807	-0.0029334	0.0037895	-0.0035076	0.001356	0.0018373	-0.0023735	
1681.098	13	1	0	0	255	-0.0094857	0.012254	0.0091747	-0.0035467	-0.0069054	0.0089207	0.014125	-0.0054606	-0.010635	0.0041114	-0.0028882	0.0037312	-0.0035759	0.0013824	0.0018467	-0.0023857	
1681.222	13	1	0	0	255	-0.0094574	0.012218	0.0091195	-0.0035254	-0.0068651	0.0088687	0.014069	-0.0054386	-0.010401	0.0040208	-0.0028231	0.003647	-0.0036757	0.0014209	0.0018959	-0.0024492	
1681.424	13	1	0	0	255	-0.0093807	0.012119	0.0090547	-0.0035003	-0.0068131	0.0088015	0.013974	-0.0054021	-0.010538	0.0040736	-0.002728	0.0035242	-0.0037561	0.001452	0.0020076	-0.0025935	
1681.574	14	1	0	0	255	-0.0093501	0.012079	0.0091023	-0.0035187	-0.0068208	0.0088115	0.013991	-0.0054087	-0.010362	0.0040055	-0.0028056	0.0036244	-0.0036354	0.0014054	0.0019091	-0.0024663	
1681.699	14	1	0	0	255	-0.0093949	0.012137	0.0091706	-0.0035451	-0.0068929	0.0089046	0.014151	-0.0054705	-0.010463	0.0040449	-0.0029029	0.0037501	-0.0034911	0.0013496	0.0018183	-0.002349	
1681.849	14	1	0	0	255	-0.0094465	0.012203	0.0091516	-0.0035378	-0.0069388	0.0089639	0.014173	-0.0054789	-0.01068	0.0041284	-0.0029218	0.0037746	-0.0034434	0.0013311	0.0017989	-0.0023239	
1681.974	14	1	0	0	255	-0.009466	0.012229	0.0091189	-0.0035251	-0.0068938	0.0089058	0.014179	-0.0054814	-0.010238	0.0039576	-0.0028895	0.0037328	-0.0035574	0.0013752	0.0018426	-0.0023804	
1682.173	14	1	0	0	255	-0.0094648	0.012227	0.0090357	-0.003493	-0.0068569	0.0088581	0.014135	-0.0054642	-0.01011	0.0039084	-0.0028263	0.0036511	-0.0036588	0.0014144	0.0019009	-0.0024557	
1682.323	14	1	0	0	255	-0.0094527	0.012211	0.0090079	-0.0034822	-0.0067714	0.0087476	0.01409	-0.0054469	-0.010303	0.0039828	-0.0027702	0.0035787	-0.0037364	0.0014444	0.001965	-0.0025385	
1682.448	14	1	0	0	255	-0.009421	0.012171	0.0090184	-0.0034863	-0.0067189	0.0086799	0.013968	-0.0053997	-0.010347	0.0039997	-0.0027324	0.0035298	-0.0036843	0.0014243	0.0019808	-0.002559	
1682.598	14	1	0	0	255	-0.0094041	0.012149	0.009117	-0.0035244	-0.0068335	0.0088278	0.01404	-0.0054274	-0.010297	0.0039806	-0.0028692	0.0037066	-0.003505	0.0013549	0.0018567	-0.0023985	
1682.725	14	1	0	0	255	-0.0094173	0.012166	0.0092113	-0.0035609	-0.0069006	0.0089146	0.014123	-0.0054595	-0.010382	0.0040133	-0.0029339	0.0037902	-0.0034743	0.0013431	0.0018015	-0.0023272	
1682.924	14	1	0	0	255	-0.0094125	0.01216	0.0091853	-0.0035508	-0.0068871	0.0088972	0.014191	-0.0054859	-0.010377	0.0040114	-0.002942	0.0038007	-0.003503	0.0013542	0.001785	-0.002306	
1683.073	14	1	0	0	255	-0.0094169	0.012165	0.0091245	-0.0035273	-0.006855	0.0088556	0.014087	-0.0054456	-0.010222	0.0039515	-0.0028918	0.0037358	-0.0036241	0.001401	0.0018468	-0.0023858	
1683.225	14	1	0	0	255	-0.0094777	0.012244	0.0090554	-0.0035006	-0.0068189	0.008809	0.013984	-0.0054059	-0.01039	0.0040165	-0.0028036	0.0036219	-0.0036764	0.0014212	0.0019169	-0.0024764	
1683.349	14	1	0	0	255	-0.0094363	0.01219	0.0089811	-0.0034719	-0.0067983	0.0087824	0.013915	-0.0053793	-0.010676	0.0041273	-0.0027421	0.0035424	-0.0037768	0.00146	0.0019875	-0.0025676	
1683.474	14	1	0	0	255	-0.009485	0.012253	0.0090691	-0.0035059	-0.0068629	0.0088658	0.013988	-0.0054076	-0.010407	0.0040231	-0.0028203	0.0036434	-0.0036482	0.0014103	0.001939	-0.0025049	
1683.674	14	1	0	0	255	-0.0094464	0.012203	0.0091968	-0.0035553	-0.0069246	0.0089455	0.014073	-0.0054404	-0.010267	0.0039691	-0.0029352	0.0037919	-0.0034732	0.0013427	0.0018271	-0.0023604	
